Date,Open,High,Low,Close,Volume,Delivery_Percentage
2023-06-05,13.25,13.25,12.85,12.9,53223.0,0.9054
2023-06-06,12.9,13.95,12.9,13.4,379055.0,0.5752
2023-06-07,13.4,13.75,12.95,13.0,72170.0,0.7683
2023-06-08,13.0,13.4,13.0,13.2,47457.0,0.6449
2023-06-11,13.1,13.4,13.05,13.15,19511.0,0.6916
2023-06-12,13.1,13.5,13.1,13.25,69487.0,0.7796
2023-06-13,13.2,13.8,13.05,13.6,137447.0,0.6720
2023-06-14,13.75,13.8,13.15,13.25,53466.0,0.6551
2023-06-15,13.25,13.5,13.1,13.45,35712.0,0.8255
2023-06-18,13.25,13.7,13.15,13.2,35306.0,0.7010
2023-06-19,13.35,13.6,13.15,13.4,54384.0,0.7084
2023-06-20,13.4,13.6,13.2,13.4,28021.0,0.8774
2023-06-21,13.6,13.65,13.2,13.25,63592.0,0.6792
2023-06-22,13.25,13.25,13.0,13.1,25770.0,0.6714
2023-06-25,13.25,13.5,13.05,13.25,39287.0,0.7234
2023-06-26,13.25,13.45,13.1,13.15,21179.0,0.6520
2023-06-27,13.1,13.25,13.05,13.05,18003.0,0.6412
2023-06-29,12.95,13.5,12.95,13.2,35450.0,0.3789
2023-07-02,13.45,13.45,13.15,13.4,32766.0,0.6578
2023-07-03,13.5,13.5,13.15,13.2,21348.0,0.7713
2023-07-04,13.2,13.5,13.15,13.2,29920.0,0.7685
2023-07-05,13.2,13.35,13.1,13.25,35865.0,0.7714
2023-07-06,13.25,13.3,12.55,12.9,80502.0,0.7156
2023-07-09,12.9,13.0,12.75,12.8,21224.0,0.8228
2023-07-10,12.8,13.0,12.7,12.8,17037.0,0.8416
2023-07-11,13.0,13.0,12.6,12.7,41933.0,0.6334
2023-07-12,12.75,12.85,12.65,12.7,20198.0,0.7098
2023-07-13,12.7,12.8,12.6,12.65,27678.0,0.6652
2023-07-16,12.6,12.9,12.6,12.75,24144.0,0.8480
2023-07-17,12.7,12.85,12.55,12.6,25982.0,0.7701
2023-07-18,12.6,12.75,12.55,12.65,25872.0,0.8668
2023-07-19,12.75,12.75,12.45,12.55,61917.0,0.5462
2023-07-20,12.5,12.6,12.5,12.5,47815.0,0.5128
2023-07-23,12.5,12.5,12.25,12.3,49225.0,0.8736
2023-07-24,12.4,12.6,12.3,12.45,26571.0,0.7195
2023-07-25,12.5,12.55,12.35,12.5,19922.0,0.8781
2023-07-26,12.6,12.6,12.4,12.4,25966.0,0.8560
2023-07-27,12.4,12.5,12.25,12.35,39887.0,0.7863
2023-07-30,12.35,12.55,12.3,12.35,38504.0,0.7334
2023-07-31,12.5,12.6,12.35,12.45,46949.0,0.7217
2023-08-01,12.5,12.5,12.2,12.2,45963.0,0.8160
2023-08-02,12.4,12.4,12.15,12.25,15672.0,0.6026
2023-08-03,12.45,12.45,12.25,12.3,14086.0,0.7537
2023-08-06,12.2,12.4,12.15,12.15,62814.0,0.9514
2023-08-07,12.15,12.4,12.15,12.25,17359.0,0.7265
2023-08-08,12.25,12.35,12.1,12.2,38536.0,0.7202
2023-08-09,12.2,12.3,12.15,12.15,32586.0,0.8985
2023-08-10,12.25,13.5,12.15,12.9,512852.0,0.4766
2023-08-13,12.9,13.2,12.6,12.75,104174.0,0.6253
2023-08-15,12.6,13.9,12.6,13.5,439086.0,0.5251
2023-08-16,13.6,13.8,13.25,13.35,182585.0,0.5598
2023-08-17,13.35,13.5,12.95,13.05,89271.0,0.6411
2023-08-20,13.25,13.4,13.0,13.1,38510.0,0.7036
2023-08-21,13.2,13.8,12.95,13.05,91362.0,0.6713
2023-08-22,13.15,13.75,13.1,13.25,210215.0,0.4274
2023-08-23,13.3,13.5,13.15,13.3,103660.0,0.4863
2023-08-24,13.35,13.7,13.15,13.45,73262.0,0.5385
2023-08-27,13.5,13.6,13.0,13.2,142296.0,0.6204
2023-08-28,13.2,13.4,13.05,13.1,57892.0,0.6929
2023-08-29,13.25,13.45,13.0,13.1,122109.0,0.5213
2023-08-30,13.1,13.3,12.9,12.95,99024.0,0.6778
2023-08-31,13.0,13.15,12.95,13.05,72154.0,0.7690
2023-09-03,13.1,13.45,13.0,13.25,193449.0,0.6243
2023-09-04,13.45,15.9,13.35,15.9,4035942.0,0.3292
2023-09-05,16.1,17.4,15.05,16.75,2250822.0,0.4425
2023-09-06,17.05,18.55,16.6,17.0,1367174.0,0.6258
2023-09-07,17.4,17.4,16.1,16.25,426389.0,0.4947
2023-09-10,16.5,16.65,16.05,16.15,138717.0,0.6802
2023-09-11,16.35,16.35,14.8,14.95,333266.0,0.6294
2023-09-12,14.85,15.8,14.55,15.65,221663.0,0.6557
2023-09-13,15.95,16.0,15.5,15.55,81241.0,0.5573
2023-09-14,15.5,16.5,15.4,16.2,340043.0,0.7467
2023-09-17,16.45,16.45,15.5,15.75,97704.0,0.7248
2023-09-19,15.7,15.7,15.05,15.2,123029.0,0.6290
2023-09-20,15.15,15.75,15.1,15.2,71633.0,0.6291
2023-09-21,15.2,15.4,14.95,15.05,51555.0,0.6186
2023-09-24,15.3,15.65,15.15,15.4,75749.0,0.7479
2023-09-25,15.5,15.5,15.05,15.1,130187.0,0.6253
2023-09-26,15.3,15.4,14.8,15.0,56339.0,0.5851
2023-09-27,15.0,15.3,14.75,14.8,91717.0,0.7428
2023-09-28,14.8,15.0,14.6,14.7,34641.0,0.7720
2023-10-02,14.8,15.0,14.6,14.85,39180.0,0.6536
2023-10-03,15.0,15.0,14.8,14.95,50070.0,0.8220
2023-10-04,14.9,15.0,14.55,14.7,32080.0,0.7537
2023-10-05,14.95,15.25,14.75,15.05,49813.0,0.7280
2023-10-08,15.05,15.15,14.6,14.7,38518.0,0.6815
2023-10-09,14.9,15.05,14.4,14.6,69657.0,0.6811
2023-10-10,14.65,16.3,14.6,16.15,721276.0,0.5257
2023-10-11,16.4,16.4,15.5,15.9,198664.0,0.6653
2023-10-12,16.0,16.0,15.5,15.55,105239.0,0.7146
2023-10-15,15.8,16.0,15.15,15.4,205377.0,0.6691
2023-10-16,15.45,15.7,15.25,15.35,93352.0,0.7496
2023-10-17,15.35,15.5,14.95,15.1,108343.0,0.7330
2023-10-18,15.1,15.2,14.8,14.95,83492.0,0.5304
2023-10-19,15.05,15.4,14.8,15.0,42346.0,0.4933
2023-10-22,15.2,15.2,13.55,13.8,97044.0,0.5611
2023-10-24,14.05,14.55,13.8,14.05,422522.0,0.0875
2023-10-25,13.85,14.1,13.25,13.5,142623.0,0.3285
2023-10-26,13.5,14.1,13.5,13.7,328751.0,0.1123
2023-10-29,13.7,14.1,13.65,13.75,229545.0,0.1277
2023-10-30,13.75,13.95,13.6,13.8,42043.0,0.3222
2023-10-31,14.0,14.1,13.7,13.8,276966.0,0.1556
2023-11-01,13.8,14.2,13.8,13.9,500116.0,0.0781
2023-11-02,14.1,14.4,14.0,14.05,255031.0,0.1410
2023-11-05,14.0,14.7,14.0,14.5,814688.0,0.0922
2023-11-06,14.7,14.7,14.4,14.45,156940.0,0.2417
2023-11-07,14.75,15.05,14.6,14.8,431103.0,0.1016
2023-11-08,14.75,15.05,14.35,14.45,635529.0,0.0855
2023-11-09,14.65,16.2,14.45,15.65,1345542.0,0.2085
2023-11-12,15.7,15.8,15.3,15.45,327788.0,0.1181
2023-11-14,15.5,15.75,15.25,15.35,473832.0,0.1344
2023-11-15,15.35,15.45,15.05,15.2,872176.0,0.0576
2023-11-16,15.1,15.75,14.95,15.5,955462.0,0.0767
2023-11-19,15.35,17.8,15.35,16.95,2020875.0,0.3573
2023-11-20,17.75,18.2,17.3,17.95,1713511.0,0.6216
2023-11-21,18.15,18.15,16.4,16.7,653775.0,0.5229
2023-11-22,16.7,17.15,16.5,16.7,274110.0,0.4917
2023-11-23,16.9,17.3,16.8,17.05,498725.0,0.2503
2023-11-27,17.45,17.5,16.6,16.75,705319.0,0.2201
2023-11-28,17.0,17.0,16.5,16.55,734543.0,0.1051
2023-11-29,16.6,16.75,15.8,15.95,525311.0,0.2857
2023-11-30,16.2,16.5,15.9,16.15,484883.0,0.1471
2023-12-03,16.5,16.5,16.05,16.15,77410.0,0.5557
2023-12-04,16.3,16.35,15.75,16.05,221430.0,0.5169
2023-12-05,16.4,17.6,16.35,17.0,972702.0,0.4592
2023-12-06,17.2,17.65,16.5,17.1,323111.0,0.3956
2023-12-07,17.35,17.35,16.65,16.75,146779.0,0.6197
2023-12-10,17.0,17.0,16.45,16.55,219606.0,0.5955
2023-12-11,16.75,16.95,16.35,16.45,192802.0,0.5864
2023-12-12,16.6,16.75,16.2,16.4,132498.0,0.6040
2023-12-13,16.5,16.8,16.15,16.35,155896.0,0.6768
2023-12-14,16.5,16.5,16.15,16.2,81797.0,0.7103
2023-12-17,16.25,19.4,16.25,18.9,2511418.0,0.3961
2023-12-18,19.6,19.8,18.05,18.95,1926599.0,0.5794
2023-12-19,18.7,19.8,17.9,18.15,1198050.0,0.5339
2023-12-20,18.4,19.3,17.6,18.95,753780.0,0.5243
2023-12-21,19.35,19.35,18.15,18.35,283104.0,0.5993
2023-12-25,18.6,18.85,17.75,18.2,254886.0,0.4727
2023-12-26,18.25,18.7,17.3,17.5,285999.0,0.6602
2023-12-27,17.6,17.7,16.5,16.65,429151.0,0.5899
2023-12-28,16.8,17.95,16.75,17.5,225203.0,0.5115
2023-12-31,17.7,19.05,17.55,18.3,536360.0,0.5024
2024-01-01,18.75,20.8,18.45,20.25,2746516.0,0.4426
2024-01-02,20.45,20.7,19.6,19.85,615802.0,0.5283
2024-01-03,19.9,20.2,19.45,19.55,357173.0,0.6259
2024-01-04,19.6,19.8,18.4,19.25,570521.0,0.6105
2024-01-07,19.25,20.2,19.05,19.65,542363.0,0.5190
2024-01-08,19.8,20.7,19.25,20.35,692641.0,0.4736
2024-01-09,20.05,20.45,19.8,19.95,359423.0,0.6386
2024-01-10,19.95,20.2,19.45,19.7,178537.0,0.5925
2024-01-11,19.7,20.4,19.2,19.35,395051.0,0.5694
2024-01-14,19.45,20.55,19.3,19.95,545691.0,0.4748
2024-01-15,20.55,20.6,19.0,19.55,438396.0,0.6515
2024-01-16,19.55,19.8,18.85,19.15,172470.0,0.4508
2024-01-17,19.05,19.8,18.4,19.2,199832.0,0.4459
2024-01-18,19.4,20.4,19.15,19.75,464185.0,0.3599
2024-01-22,19.5,19.75,17.9,18.25,307197.0,0.6238
2024-01-23,18.3,18.6,17.7,17.9,522103.0,0.5522
2024-01-24,18.05,18.95,18.0,18.55,505999.0,0.4200
2024-01-28,18.85,19.35,18.35,18.55,473863.0,0.5225
2024-01-29,18.8,19.9,18.1,19.3,881136.0,0.2822
2024-01-30,19.3,19.8,18.85,18.95,461047.0,0.4829
2024-01-31,19.25,19.4,18.5,18.65,328657.0,0.3778
2024-02-01,18.85,19.2,18.4,18.5,312814.0,0.5432
2024-02-04,18.7,19.35,18.0,18.15,255041.0,0.6166
2024-02-05,18.45,21.75,18.0,21.75,4434228.0,0.4635
2024-02-06,21.9,24.35,20.5,23.05,6061557.0,0.3520
2024-02-07,23.7,23.9,22.4,23.35,1453883.0,0.4869
2024-02-08,24.0,24.0,21.0,21.95,1023722.0,0.4156
2024-02-11,22.0,22.4,19.3,19.65,702268.0,0.4836
2024-02-12,19.05,20.15,18.7,19.25,471798.0,0.4060
2024-02-13,18.85,20.4,18.85,20.25,410323.0,0.4269
2024-02-14,20.85,21.2,20.45,20.7,326424.0,0.5385
2024-02-15,21.05,21.7,20.85,21.25,374675.0,0.5584
2024-02-18,21.65,21.65,20.6,20.7,221074.0,0.5089
2024-02-19,20.7,21.15,20.0,20.15,259170.0,0.5233
2024-02-20,20.25,21.0,19.45,19.7,426046.0,0.3722
2024-02-21,19.9,20.85,19.2,20.35,471362.0,0.3415
2024-02-22,20.5,20.7,19.8,19.9,205478.0,0.5084
2024-02-25,20.0,20.1,19.0,19.2,349526.0,0.5538
2024-02-26,19.35,19.95,18.55,18.9,351210.0,0.5455
2024-02-27,19.0,19.3,17.9,18.3,353315.0,0.5552
2024-02-28,18.3,18.5,17.95,18.35,104803.0,0.5731
2024-02-29,18.55,19.35,18.3,19.15,375337.0,0.5381
2024-03-03,19.3,20.5,18.6,19.6,1032288.0,0.4397
2024-03-04,19.6,20.7,19.15,19.4,430469.0,0.4720
2024-03-05,19.5,19.6,18.35,18.85,259658.0,0.6607
2024-03-06,18.6,19.2,18.6,18.75,93568.0,0.6455
2024-03-10,18.95,18.95,17.9,18.2,166822.0,0.6274
2024-03-11,18.15,18.25,16.6,16.85,278542.0,0.6520
2024-03-12,16.6,17.05,15.2,15.4,326514.0,0.6134
2024-03-13,15.3,16.15,14.8,15.75,323350.0,0.5289
2024-03-14,15.9,16.3,15.55,15.9,139280.0,0.4618
2024-03-17,15.65,16.3,15.6,15.95,101099.0,0.5405
2024-03-18,15.65,16.1,15.15,15.35,156688.0,0.7215
2024-03-19,15.25,15.65,14.55,14.9,175876.0,0.5940
2024-03-20,15.0,16.5,14.95,16.05,618976.0,0.2831
2024-03-21,16.05,16.15,15.6,15.75,155728.0,0.6216
2024-03-25,16.0,16.15,15.4,15.5,123171.0,0.7028
2024-03-26,15.4,15.75,14.5,14.8,307388.0,0.7958
2024-03-27,15.0,15.45,14.55,14.65,164925.0,0.6100
2024-03-31,14.5,16.2,14.4,16.1,220502.0,0.4963
2024-04-01,16.05,16.75,15.8,16.6,154019.0,0.5340
2024-04-02,16.95,17.6,16.55,17.3,301469.0,0.4982
2024-04-03,17.95,20.2,17.1,19.55,1437274.0,0.3623
2024-04-04,19.55,21.25,18.8,20.85,1624947.0,0.4530
2024-04-07,21.55,21.55,19.6,19.75,367879.0,0.5940
2024-04-08,19.95,20.9,19.4,19.5,248792.0,0.5462
2024-04-09,19.55,20.2,19.2,19.35,168929.0,0.5912
2024-04-11,19.05,19.9,18.3,18.9,238854.0,0.6508
2024-04-14,17.8,19.3,17.3,19.1,367991.0,0.6135
2024-04-15,19.1,21.0,18.5,21.0,1304407.0,0.7866
2024-04-17,21.4,23.1,21.15,22.15,1986566.0,0.6517
2024-04-18,22.0,22.25,20.9,22.1,346575.0,0.6519
2024-04-21,23.05,23.2,21.6,22.45,371283.0,0.7959
2024-04-22,22.05,22.9,21.8,22.05,245867.0,0.8288
2024-04-23,22.0,22.5,21.9,22.0,287056.0,0.9401
2024-04-24,22.25,22.25,21.0,21.35,173168.0,0.7941
2024-04-25,21.35,21.8,21.35,21.6,106113.0,0.8650
2024-04-28,21.95,21.95,21.5,21.7,117777.0,0.8589
2024-04-29,22.0,22.7,21.65,22.05,256537.0,0.6537
2024-05-01,22.35,23.25,21.15,22.9,800970.0,0.5235
2024-05-02,22.95,23.0,22.4,22.6,178059.0,0.8241
2024-05-05,22.75,22.85,22.15,22.45,193243.0,0.7182
2024-05-06,23.0,23.0,21.8,22.1,146988.0,0.7947
2024-05-07,22.5,22.7,21.95,22.05,86039.0,0.4373
2024-05-08,22.2,22.25,20.15,20.8,112511.0,0.7510
2024-05-09,20.4,20.85,20.15,20.6,42582.0,0.6883
2024-05-12,20.6,20.85,19.6,20.2,52836.0,0.6124
2024-05-13,19.8,22.05,19.7,21.55,173093.0,0.4992
2024-05-14,21.75,22.25,21.0,21.5,73362.0,0.5995
2024-05-15,21.9,21.9,21.0,21.05,55536.0,0.7205
2024-05-16,20.6,22.2,20.6,21.45,160020.0,0.4303
2024-05-20,21.0,22.0,20.5,21.25,167699.0,0.5930
2024-05-21,21.4,21.45,20.7,21.0,65009.0,0.6703
2024-05-22,21.05,21.35,20.6,20.7,44899.0,0.8014
2024-05-23,20.95,21.05,20.3,20.55,45103.0,0.7262
2024-05-26,20.6,20.9,20.1,20.25,58758.0,0.8077
2024-05-27,20.0,20.45,19.85,19.9,46062.0,0.8213
2024-05-28,19.7,21.1,19.7,20.7,109213.0,0.6488
2024-05-29,20.95,21.1,19.65,20.1,68494.0,0.6939
2024-05-30,20.0,20.3,19.55,19.7,64092.0,0.7472
2024-06-02,19.75,20.45,19.65,19.8,46103.0,0.7573
2024-06-03,20.15,20.15,17.85,18.35,220207.0,0.8691
2024-06-04,18.35,18.9,17.5,18.3,96204.0,0.5873
2024-06-05,18.45,19.85,18.35,19.55,83179.0,0.6917
2024-06-06,19.9,21.5,19.4,20.0,186798.0,0.6231
2024-06-09,20.9,20.9,20.01,20.21,53281.0,0.7464
2024-06-10,20.38,20.8,19.87,20.21,66456.0,0.5883
2024-06-11,20.25,20.5,19.56,19.97,82620.0,0.6689
2024-06-12,20.28,20.28,19.85,19.91,41243.0,0.6531
2024-06-13,19.95,20.9,19.88,20.02,186163.0,0.5734
2024-06-17,20.05,20.49,19.5,19.63,124568.0,0.6276
2024-06-18,19.85,19.85,19.01,19.18,76697.0,0.7011
2024-06-19,19.38,19.58,19.0,19.09,120780.0,0.5425
2024-06-20,19.3,19.53,19.05,19.46,77355.0,0.7427
2024-06-23,19.65,20.14,19.4,19.46,127706.0,0.5138
2024-06-24,19.49,19.9,19.26,19.32,89751.0,0.6669
2024-06-25,19.3,19.87,19.0,19.53,137472.0,0.5053
2024-06-26,19.53,19.64,19.36,19.57,88836.0,0.7667
2024-06-27,19.79,19.79,19.17,19.61,135717.0,0.7865
2024-06-30,19.74,20.75,19.62,20.5,204523.0,0.7285
2024-07-01,20.51,21.8,20.02,21.16,666799.0,0.4669
2024-07-02,21.48,21.79,20.9,20.93,147120.0,0.6942
2024-07-03,20.8,21.18,20.15,20.28,47598.0,0.6280
2024-07-04,20.7,21.8,20.1,21.02,168096.0,0.6876
2024-07-07,21.44,21.92,20.5,21.02,289215.0,0.7356
2024-07-08,21.24,21.99,20.95,20.97,160139.0,0.6030
2024-07-09,21.23,21.23,20.3,20.62,76323.0,0.5273
2024-07-10,20.95,20.95,20.3,20.34,61478.0,0.5883
2024-07-11,20.25,21.4,20.25,21.1,149216.0,0.5650
2024-07-14,21.47,21.47,20.58,20.73,62068.0,0.7951
2024-07-15,20.97,20.97,20.12,20.27,83161.0,0.5500
2024-07-17,20.32,21.25,19.81,20.47,199309.0,0.4512
2024-07-18,20.67,20.7,19.81,20.07,83057.0,0.7034
2024-07-21,19.95,20.07,19.8,19.84,36919.0,0.6621
2024-07-22,19.85,20.24,19.0,19.75,188638.0,0.4443
2024-07-23,19.52,21.72,19.52,21.6,602057.0,0.6916
2024-07-24,21.5,23.27,21.05,21.74,791043.0,0.6703
2024-07-25,21.74,22.19,21.12,21.25,112955.0,0.6156
2024-07-28,21.06,21.46,20.61,20.96,101884.0,0.5349
2024-07-29,20.52,21.65,20.52,21.13,72161.0,0.6058
2024-07-30,21.0,21.43,20.7,20.83,91101.0,0.7022
2024-07-31,21.39,21.39,20.25,20.46,86999.0,0.7488
2024-08-01,20.5,20.96,19.86,20.77,100794.0,0.6401
2024-08-04,20.52,20.52,19.39,19.85,187224.0,0.7436
2024-08-05,20.25,20.39,19.11,19.4,66892.0,0.6580
2024-08-06,19.67,21.45,19.02,20.3,310962.0,0.4046
2024-08-07,20.05,20.86,20.0,20.12,36935.0,0.5483
2024-08-08,20.53,22.78,20.2,21.83,923112.0,0.4491
2024-08-11,21.99,22.4,21.23,21.38,263170.0,0.6697
2024-08-12,21.78,21.78,20.2,20.31,96181.0,0.6939
2024-08-13,20.37,20.59,19.81,19.94,41942.0,0.7294
2024-08-15,19.95,20.44,19.95,20.11,42862.0,0.4892
2024-08-18,20.34,22.8,19.84,22.39,564336.0,0.7288
2024-08-19,25.0,25.35,21.74,23.53,3481112.0,0.2922
2024-08-20,23.5,24.84,22.8,23.04,896280.0,0.6422
2024-08-21,23.37,23.9,22.51,22.61,161195.0,0.5766
2024-08-22,22.6,23.49,21.9,22.25,367057.0,0.4278
2024-08-25,22.7,23.45,22.1,22.64,98490.0,0.4990
2024-08-26,22.88,22.88,21.02,21.53,221554.0,0.7171
2024-08-27,21.68,21.99,20.82,20.98,202537.0,0.6195
2024-08-28,21.19,21.8,20.65,20.73,139786.0,0.7098
2024-08-29,20.93,21.44,20.06,20.98,521817.0,0.4941
2024-09-01,21.3,22.74,20.85,22.14,637951.0,0.3939
2024-09-02,22.54,22.81,22.0,22.58,282024.0,0.6379
2024-09-03,21.62,22.48,21.62,22.01,91885.0,0.5624
2024-09-04,22.0,22.74,21.85,21.98,185383.0,0.5164
2024-09-05,22.17,22.49,21.55,21.97,269622.0,0.8185
2024-09-08,21.96,22.22,21.52,21.79,121701.0,0.6241
2024-09-09,21.73,22.29,21.73,21.95,64646.0,0.7155
2024-09-10,21.95,22.47,21.95,22.03,112487.0,0.6816
2024-09-11,22.07,22.3,21.45,21.56,85942.0,0.5973
2024-09-12,21.88,22.5,21.6,21.96,401079.0,0.5704
2024-09-15,22.38,22.4,21.81,21.83,85258.0,0.6392
2024-09-16,21.5,22.0,21.5,21.78,58868.0,0.5803
2024-09-17,21.96,21.96,20.8,21.15,179999.0,0.6676
2024-09-18,21.43,21.44,20.45,20.53,138484.0,0.6237
2024-09-19,20.99,21.4,20.68,21.09,123072.0,0.5514
2024-09-22,21.1,21.1,20.85,20.91,50349.0,0.7281
2024-09-23,20.96,21.45,20.65,20.87,81450.0,0.5745
2024-09-24,20.98,20.99,19.97,20.02,267600.0,0.8195
2024-09-25,20.28,20.49,19.99,20.19,111644.0,0.3476
2024-09-26,20.64,20.64,20.02,20.16,64691.0,0.5767
2024-09-29,20.16,20.6,20.0,20.15,159350.0,0.3656
2024-09-30,20.28,21.0,20.05,20.71,200887.0,0.5112
2024-10-02,20.98,20.98,20.11,20.19,85454.0,0.5843
2024-10-03,20.19,20.49,19.45,19.61,139100.0,0.5845
2024-10-06,19.87,19.87,18.61,18.77,107194.0,0.6814
2024-10-07,19.0,19.68,18.69,19.28,68949.0,0.4958
2024-10-08,19.66,20.66,19.31,20.28,167954.0,0.5316
2024-10-09,20.44,20.89,20.15,20.31,125314.0,0.7904
2024-10-10,20.44,20.59,19.82,19.92,61127.0,0.6643
2024-10-13,20.25,20.25,19.65,19.88,83934.0,0.7779
2024-10-14,19.55,20.0,19.52,19.58,40402.0,0.6287
2024-10-15,19.75,19.75,19.0,19.27,79476.0,0.4842
2024-10-16,19.27,19.47,18.8,18.94,71043.0,0.5884
2024-10-17,18.82,19.19,18.65,19.06,42771.0,0.4755
2024-10-20,19.44,19.44,18.7,18.72,23218.0,0.5275
2024-10-21,18.75,18.91,18.01,18.05,31415.0,0.5033
2024-10-22,18.0,18.39,17.22,17.52,145645.0,0.5704
2024-10-23,17.33,17.98,17.12,17.84,76989.0,0.4900
2024-10-24,17.84,17.85,17.25,17.4,49865.0,0.6700
2024-10-27,17.1,17.87,17.1,17.23,51233.0,0.7008
2024-10-28,17.79,17.79,16.91,17.09,62044.0,0.5228
2024-10-29,17.45,17.95,17.09,17.71,50401.0,0.4716
2024-10-30,17.41,18.5,17.41,17.96,68500.0,0.5820
2024-10-31,18.48,18.77,18.02,18.62,27538.0,0.8039
2024-11-03,19.05,20.1,18.89,19.21,143263.0,0.4349
2024-11-04,19.26,19.96,19.26,19.38,76329.0,0.4803
2024-11-05,19.4,19.69,18.86,19.47,46019.0,0.4883
2024-11-06,19.48,19.51,18.92,19.09,25913.0,0.4991
2024-11-07,19.19,19.19,18.6,18.77,35145.0,0.7407
2024-11-10,19.15,19.3,18.9,19.08,28894.0,0.6229
2024-11-11,19.24,19.24,18.0,18.23,37599.0,0.5390
2024-11-12,18.22,18.22,17.11,17.23,57046.0,0.5464
2024-11-13,17.58,17.72,17.3,17.58,23935.0,0.5934
2024-11-17,17.58,17.7,16.62,16.92,49551.0,0.6883
2024-11-18,17.23,17.64,16.77,16.96,74298.0,0.6706
2024-11-20,16.8,17.12,16.2,16.33,54297.0,0.5365
2024-11-21,16.6,16.84,16.37,16.71,24507.0,0.6150
2024-11-24,16.99,17.55,16.99,17.15,67404.0,0.4837
2024-11-25,17.49,17.55,16.2,17.15,39957.0,0.5143
2024-11-26,17.44,17.59,17.16,17.33,23814.0,0.5474
2024-11-27,17.69,18.1,17.31,17.72,55293.0,0.5863
2024-11-28,17.98,18.4,17.66,17.89,22201.0,0.4706
2024-12-01,18.3,19.34,18.01,18.86,169219.0,0.3270
2024-12-02,18.96,19.21,18.71,18.99,68582.0,0.5925
2024-12-03,18.64,20.0,18.61,19.0,84265.0,0.5465
2024-12-04,19.0,19.55,18.7,19.34,43020.0,0.5907
2024-12-05,19.49,19.6,18.95,19.15,65135.0,0.2771
2024-12-08,19.15,20.75,19.15,19.7,265881.0,0.4043
2024-12-09,19.89,19.93,19.3,19.56,51141.0,0.6529
2024-12-10,19.7,19.74,19.25,19.3,36732.0,0.7800
2024-12-11,19.5,19.5,19.07,19.21,86996.0,0.2951
2024-12-12,19.21,19.48,18.74,19.0,44201.0,0.4516
2024-12-15,18.83,20.13,18.83,19.56,145246.0,0.3217
2024-12-16,19.0,19.64,18.76,18.95,55572.0,0.5348
2024-12-17,18.7,19.43,18.6,18.68,36704.0,0.4550
2024-12-18,18.68,19.03,18.46,18.81,87725.0,0.3427
2024-12-19,18.99,19.1,18.71,18.75,78285.0,0.7014
2024-12-22,18.75,18.93,18.1,18.16,51379.0,0.7115
2024-12-23,18.05,18.3,17.31,17.97,53752.0,0.6433
2024-12-25,17.52,18.08,17.52,17.78,24032.0,0.6411
2024-12-26,17.55,17.99,17.55,17.83,26303.0,0.5336
2024-12-29,17.53,17.92,17.53,17.63,28077.0,0.7552
2024-12-30,17.36,18.97,17.35,18.18,10838.0,0.5491
2024-12-31,18.2,18.79,18.11,18.18,79880.0,0.4015
2025-01-01,18.48,18.68,18.18,18.52,22543.0,0.5220
2025-01-02,18.44,18.99,18.17,18.3,37626.0,0.5569
2025-01-05,18.17,18.39,17.38,17.44,42507.0,0.8557
2025-01-06,17.57,18.15,17.57,18.01,36407.0,0.4730
2025-01-07,18.3,18.3,18.0,18.01,28787.0,0.7387
2025-01-08,18.03,18.54,17.5,18.06,40184.0,0.7219
2025-01-09,18.49,18.49,17.0,17.2,68615.0,0.6075
2025-01-12,17.0,17.6,16.25,16.89,145736.0,0.3424
2025-01-13,17.08,17.28,16.71,17.01,37281.0,0.6671
2025-01-14,16.78,17.38,16.78,17.1,50716.0,0.5889
2025-01-15,17.39,17.39,17.0,17.19,28612.0,0.4963
2025-01-16,17.01,17.45,16.5,16.88,53823.0,0.4857
2025-01-19,17.19,17.19,16.89,17.06,18396.0,0.6047
2025-01-20,17.06,17.19,16.48,16.51,43094.0,0.5078
2025-01-21,16.52,16.87,16.25,16.59,17317.0,0.6316
2025-01-22,16.55,17.5,16.3,16.56,99971.0,0.3668
2025-01-23,16.86,16.86,14.6,15.14,183985.0,0.5835
2025-01-26,15.14,15.14,14.5,14.54,430577.0,0.9300
2025-01-27,14.8,15.95,14.5,15.39,97490.0,0.6666
2025-01-28,15.65,16.4,15.46,16.08,88820.0,0.6439
2025-01-29,16.0,18.2,16.0,17.83,197686.0,0.6259
2025-01-30,18.25,20.05,17.85,19.48,491499.0,0.7328
2025-01-31,19.49,21.2,18.53,20.07,259985.0,0.5918
2025-02-02,20.06,20.06,19.5,19.62,68335.0,0.7412
2025-02-03,19.98,20.25,19.5,19.9,50915.0,0.7122
2025-02-04,20.0,20.0,19.0,19.24,45610.0,0.5951
2025-02-05,19.65,20.8,18.5,20.43,263486.0,0.7915
2025-02-06,20.0,20.39,19.11,19.5,102317.0,0.6997
2025-02-09,20.0,20.0,19.0,19.35,47454.0,0.7191
2025-02-10,19.97,20.6,19.0,20.28,297837.0,0.7976
2025-02-11,20.48,22.69,20.36,22.22,1727835.0,0.5817
2025-02-12,22.18,23.5,21.2,22.61,603448.0,0.6254
2025-02-13,23.4,23.4,21.92,22.43,244385.0,0.7878
2025-02-16,22.95,23.25,22.0,22.52,221842.0,0.6884
2025-02-17,23.49,23.49,22.0,22.95,308089.0,0.8134
2025-02-18,23.29,27.0,23.01,25.26,874064.0,0.6800
2025-02-19,25.5,29.0,25.07,27.13,1263696.0,0.3949
2025-02-20,27.8,31.2,27.5,30.22,1149173.0,0.6474
2025-02-23,32.0,36.26,31.3,36.26,5656998.0,0.2535
2025-02-24,35.0,36.0,34.44,34.44,219078.0,0.2535
2025-02-26,32.71,32.71,32.71,32.71,7447.0,0.2535
2025-02-27,31.07,31.07,31.07,31.07,9825.0,0.2535
2025-03-02,29.51,29.51,29.51,29.51,89287.0,0.2535
2025-03-03,28.08,28.08,28.03,28.03,8686.0,0.2535
2025-03-04,26.62,26.62,26.62,26.62,49996.0,0.2535
2025-03-05,25.28,25.28,25.28,25.28,8457.0,0.2535
2025-03-06,24.01,26.54,24.01,26.54,356098.0,0.2535
2025-03-09,27.6,27.8,25.21,25.21,165006.0,0.2535
2025-03-10,23.95,23.95,23.94,23.94,213297.0,0.2535
2025-03-11,22.74,24.1,22.74,23.81,371268.0,0.2535
2025-03-12,23.0,25.0,22.61,25.0,340195.0,0.2535
2025-03-16,24.05,24.5,23.75,23.75,78720.0,0.2535
2025-03-17,23.75,23.75,23.75,23.75,0.0,0.2535
2025-03-18,25.45,25.46,24.26,25.46,63768.0,0.2535
2025-03-19,26.64,26.73,26.5,26.73,20941.0,0.2535
2025-03-20,27.7,28.06,27.05,28.06,98970.0,0.2535
2025-03-23,29.4,29.46,28.5,29.46,15486.0,0.2535
2025-03-24,30.93,30.93,30.93,30.93,44249.0,0.2535
2025-03-25,31.54,31.54,30.31,31.54,119962.0,0.2535
2025-03-26,32.17,32.17,32.17,32.17,30533.0,0.2535
2025-03-27,32.81,32.81,32.81,32.81,28661.0,0.2535
2025-03-31,33.46,33.46,33.46,33.46,16372.0,0.2535
2025-04-01,34.12,34.12,34.12,34.12,30920.0,0.2535
2025-04-02,34.8,34.8,34.8,34.8,22441.0,0.2535
2025-04-03,35.49,35.49,35.49,35.49,37274.0,0.2535
2025-04-06,36.19,36.19,36.19,36.19,155576.0,0.2535
2025-04-07,36.91,36.91,36.91,36.91,36527.0,0.2535
2025-04-08,37.64,37.64,37.64,37.64,46587.0,0.2535
2025-04-10,38.39,38.39,38.39,38.39,30197.0,0.2535
2025-04-14,39.15,39.15,39.15,39.15,31442.0,0.2535
2025-04-15,39.93,39.93,39.93,39.93,23110.0,0.2535
2025-04-16,40.72,40.72,40.72,40.72,21244.0,0.2535
2025-04-20,39.9,39.9,39.9,39.9,281187.0,0.2535
2025-04-21,39.1,39.1,39.1,39.1,272985.0,0.2535
2025-04-22,38.31,38.31,38.31,38.31,29895.0,0.2535
2025-04-23,37.54,37.56,37.54,37.54,523065.0,0.2535
2025-04-24,36.78,36.78,36.78,36.78,62507.0,0.2535
2025-04-27,36.04,36.78,36.04,36.04,261861.0,0.2535
2025-04-28,35.31,35.31,35.31,35.31,49220.0,0.2535
2025-04-29,34.6,34.6,34.6,34.6,23775.0,0.2535
2025-05-01,33.9,33.9,33.9,33.9,8873.0,0.2535
2025-05-04,32.5,33.89,32.2,32.2,864614.0,0.2535
2025-05-05,30.59,30.59,30.59,30.59,124674.0,0.2535
2025-05-06,29.06,32.11,29.06,30.83,364545.0,0.2535
2025-05-07,32.37,32.37,31.89,32.36,199465.0,0.2535
2025-05-08,31.0,33.97,30.74,33.95,161434.0,0.2535
2025-05-11,35.64,35.64,35.38,35.64,135622.0,0.2535
2025-05-12,37.42,37.42,37.42,37.42,87196.0,0.2535
2025-05-13,39.29,39.29,35.6,37.74,1085952.0,0.2535
2025-05-14,36.98,36.98,36.98,36.98,76078.0,0.2535
2025-05-15,37.5,37.5,37.05,37.5,194376.0,0.2535
2025-05-18,37.5,37.5,37.1,37.5,59507.0,0.2535
2025-05-19,38.25,38.25,37.83,38.25,50707.0,0.2535
2025-05-20,39.01,39.01,39.01,39.01,11730.0,0.2535
2025-05-21,39.79,39.79,39.79,39.79,21454.0,0.2535
2025-05-22,40.58,40.58,40.58,40.58,10670.0,0.2535
2025-05-25,41.39,41.39,41.39,41.39,8638.0,0.2535
2025-05-26,42.21,42.21,42.21,42.21,12604.0,0.2535
2025-05-27,43.05,43.05,43.05,43.05,17800.0,0.2535
2025-05-28,43.91,43.91,43.91,43.91,8293.0,0.2535
2025-05-29,43.03,44.78,43.03,43.03,860078.0,0.2535
2025-06-01,42.16,42.16,42.16,42.16,95544.0,0.2535
2025-06-02,41.31,41.31,41.31,41.31,25827.0,0.2535
2025-06-03,40.48,40.48,40.48,40.48,37980.0,0.2535
2025-06-04,39.67,39.67,39.67,39.67,47978.0,0.2535
2025-06-05,38.87,38.87,38.87,38.87,21615.0,0.2535
2025-06-08,39.64,39.64,38.09,39.64,212381.0,0.2535
2025-06-09,38.84,38.84,38.84,38.84,59702.0,0.2535
2025-06-10,38.06,38.06,38.06,38.06,41232.0,0.2535
2025-06-11,37.29,37.29,37.29,37.29,170845.0,0.2535
2025-06-12,36.54,36.54,36.54,36.54,38358.0,0.2535
2025-06-15,35.8,35.8,35.8,35.8,7095.0,0.2535
2025-06-16,35.08,35.08,35.08,35.08,46973.0,0.2535
2025-06-17,34.37,35.78,34.37,34.37,675387.0,0.2535
2025-06-18,33.68,33.68,33.68,33.68,126661.0,0.2535
2025-06-19,33.0,33.0,33.0,33.0,440710.0,0.2535
2025-06-22,31.35,31.35,31.35,31.35,89928.0,0.2535
2025-06-23,29.78,32.91,29.78,31.71,820012.0,0.2535
2025-06-24,30.6,32.4,30.12,31.83,277473.0,0.2535
2025-06-25,32.0,32.9,31.15,31.33,46820.0,0.2535
2025-06-26,30.7,32.89,30.7,32.88,96552.0,0.2535
2025-06-29,33.4,34.52,33.4,34.52,158910.0,0.2535
2025-06-30,36.24,36.24,35.01,35.15,265582.0,0.2535
2025-07-01,36.0,36.0,33.39,33.75,285130.0,0.2535
2025-07-02,33.4,34.25,32.07,32.14,140776.0,0.2535
2025-07-03,31.85,32.5,31.05,32.07,63461.0,0.2535
2025-07-06,31.4,32.69,31.0,32.11,32457.0,0.2535
2025-07-07,31.99,32.7,30.65,32.0,22583.0,0.2535
2025-07-08,32.0,32.9,31.1,31.42,45210.0,0.2535
2025-07-09,31.51,32.45,31.0,31.22,71143.0,0.2535
2025-07-10,32.2,32.2,31.0,31.75,35786.0,0.2535
2025-07-13,32.24,32.24,31.07,31.57,16558.0,0.2535
2025-07-14,31.57,32.1,30.96,31.93,48930.0,0.2535
2025-07-15,32.0,33.52,32.0,33.52,29399.0,0.2535
2025-07-16,35.1,35.19,35.0,35.19,269257.0,0.2535
2025-07-17,34.22,36.94,34.1,36.94,145115.0,0.2535
2025-07-20,35.51,38.0,35.09,35.92,556017.0,0.2535
2025-07-21,35.2,35.2,35.2,35.2,53617.0,0.2535
2025-07-22,34.49,34.49,34.49,34.49,3055.0,0.2535
2025-07-23,33.8,33.8,33.8,33.8,927.0,0.2535
2025-07-24,33.12,33.12,33.12,33.12,25133.0,0.2535
2025-07-27,32.45,32.45,32.45,32.45,17643.0,0.2535
2025-07-28,33.09,33.09,32.45,33.09,95494.0,0.2535
2025-07-29,33.05,33.69,33.0,33.05,14824.0,0.2535
2025-07-30,33.45,33.45,33.0,33.45,17210.0,0.2535
2025-07-31,33.6,33.6,33.6,33.6,24953.0,0.2535
2025-08-03,34.27,34.27,33.0,34.27,14652.0,0.2535
2025-08-04,34.88,34.92,34.88,34.88,13276.0,0.2535
2025-08-05,34.18,34.88,34.18,34.18,1591.0,0.2535
2025-08-06,33.49,33.99,33.49,33.49,118.0,0.2535
2025-08-07,33.0,33.49,32.82,33.0,32051.0,0.2535
2025-08-10,33.0,33.0,32.41,33.0,4094.0,0.2535
2025-08-11,32.34,33.0,32.34,32.34,4823.0,0.2535
2025-08-12,31.7,32.5,31.7,31.7,24098.0,0.2535
2025-08-13,31.06,31.11,31.06,31.06,3650.0,0.2535
2025-08-17,30.43,31.21,30.43,30.43,14696.0,0.2535
2025-08-18,31.03,31.03,30.61,31.03,53106.0,0.2535
2025-08-19,31.6,31.65,31.49,31.6,16197.0,0.2535
2025-08-20,32.23,32.23,32.0,32.23,24766.0,0.2535
2025-08-21,32.87,32.87,32.87,32.87,2601.0,0.2535
2025-08-24,33.0,33.52,32.98,33.0,46052.0,0.2535
2025-08-25,32.34,32.34,32.34,32.34,47021.0,0.2535
2025-08-27,31.69,31.75,31.69,31.69,13156.0,0.2535
2025-08-28,31.1,31.6,31.05,31.1,41353.0,0.2535
2025-08-31,31.41,32.2,29.63,31.16,49878.0,0.2535
2025-09-01,30.15,31.52,30.0,30.17,27743.0,0.2535
2025-09-02,30.0,30.68,29.15,30.18,34576.0,0.2535
2025-09-03,29.95,30.9,29.2,29.53,30932.0,0.2535
2025-09-04,29.57,30.0,29.0,29.61,16345.0,0.2535
2025-09-07,29.61,31.07,29.5,30.27,8810.0,0.2535
2025-09-08,29.8,30.87,29.26,30.0,47216.0,0.2535
2025-09-09,29.51,31.0,29.4,30.5,23235.0,0.2535
2025-09-10,29.9,31.0,29.5,30.6,20208.0,0.2535
2025-09-11,30.26,31.41,30.21,31.03,16174.0,0.2535
2025-09-14,32.5,37.23,32.5,33.97,898722.0,0.3565
2025-09-15,34.0,35.99,33.6,34.87,149365.0,0.5516
2025-09-16,35.0,35.0,32.2,32.85,112132.0,0.6215
2025-09-17,32.8,36.18,32.26,34.5,132921.0,0.5298
2025-09-18,34.49,35.95,33.0,34.79,65706.0,0.5980
2025-09-21,35.45,35.45,33.01,33.13,36939.0,0.5266
2025-09-22,33.0,34.6,32.49,32.86,572020.0,0.9402
2025-09-23,33.5,33.9,32.0,32.2,57140.0,0.6552
2025-09-24,33.01,33.06,31.3,32.03,36075.0,0.4871
2025-09-25,32.03,33.03,31.2,31.38,23145.0,0.4136
2025-09-28,30.55,33.0,30.55,30.93,57589.0,0.4940
2025-09-29,30.55,31.95,30.55,30.96,28094.0,0.4272
2025-09-30,30.1,31.09,29.2,30.55,38738.0,0.2850
2025-10-02,29.5,33.5,29.5,33.1,85307.0,0.4814
2025-10-05,32.51,33.79,32.5,32.52,37376.0,0.6476
2025-10-06,32.1,33.0,32.01,32.26,35119.0,0.5516
2025-10-07,32.98,33.0,31.0,31.57,46363.0,0.7049
2025-10-08,31.52,33.43,31.01,31.92,29561.0,0.4629
2025-10-09,31.2,32.6,31.2,31.49,14397.0,0.7358
2025-10-12,31.01,31.51,30.01,30.18,48814.0,0.8267
2025-10-13,30.87,31.0,29.85,30.22,71252.0,0.8514
2025-10-14,29.75,30.91,29.63,29.91,40992.0,0.6260
2025-10-15,30.05,33.02,30.05,30.94,141910.0,0.4056
2025-10-16,30.53,30.9,29.4,29.71,75588.0,0.6870
2025-10-19,29.11,30.5,29.11,29.9,25277.0,0.6614
2025-10-20,30.2,31.0,29.0,29.82,16281.0,0.8023
2025-10-22,29.42,30.0,29.42,29.89,11742.0,0.7085
2025-10-23,29.63,30.0,29.5,29.94,24142.0,0.7216
2025-10-26,29.56,29.99,29.02,29.79,37934.0,0.8332
2025-10-27,29.3,29.92,29.27,29.8,31096.0,0.6893
2025-10-28,29.8,30.17,29.43,29.55,18764.0,0.6044
2025-10-29,29.19,30.47,29.19,29.79,31172.0,0.5429
2025-10-30,29.33,30.0,29.0,29.14,19506.0,0.7460
2025-11-02,29.2,29.9,29.19,29.3,11459.0,0.8574
2025-11-03,29.39,29.39,27.35,28.26,25781.0,0.7026
2025-11-05,28.3,28.9,28.03,28.5,27537.0,0.6394
2025-11-06,27.5,28.8,27.05,28.16,36353.0,0.5848
2025-11-09,27.17,30.69,27.17,29.22,28887.0,0.6952
2025-11-10,29.36,29.37,28.4,28.94,12152.0,0.5735
2025-11-11,28.93,29.09,28.41,28.87,7515.0,0.7059
2025-11-12,28.25,29.49,28.0,29.02,111427.0,0.8427
2025-11-13,29.49,30.0,28.6,29.29,22137.0,0.8740
2025-11-16,30.0,30.19,29.5,29.9,25781.0,0.6350
2025-11-17,29.7,30.0,29.19,29.73,38362.0,0.4852
2025-11-18,30.5,32.0,29.25,29.87,123417.0,0.8215
2025-11-19,30.5,30.5,29.16,29.73,84265.0,0.8137
2025-11-20,29.17,30.0,28.3,29.13,96140.0,0.7230
2025-11-23,28.3,29.19,28.0,28.24,32501.0,0.7350
2025-11-24,27.33,29.9,27.33,28.79,168119.0,0.7073
2025-11-25,30.85,30.85,28.2,28.88,110489.0,0.8761
2025-11-26,29.94,30.4,28.31,29.8,66309.0,0.6290
2025-11-27,30.1,30.66,29.3,30.21,15229.0,0.6265
2025-11-30,29.9,31.48,29.19,29.75,22785.0,0.6644
2025-12-01,29.02,30.87,29.02,29.69,41841.0,0.7455
2025-12-02,30.59,30.6,29.26,30.09,36203.0,0.9154
2025-12-03,30.92,30.92,29.95,29.99,34798.0,0.9012
2025-12-04,30.79,30.79,29.55,30.14,27776.0,0.5683
2025-12-07,30.01,30.33,29.26,29.99,34446.0,0.8854
2025-12-08,29.8,30.84,29.8,30.28,118916.0,0.8824
2025-12-09,30.9,31.52,30.21,31.02,36752.0,0.6544
2025-12-10,31.29,32.01,30.8,31.07,26789.0,0.7632
2025-12-11,31.91,31.98,30.95,31.17,38074.0,0.7300
2025-12-14,30.6,31.99,30.0,31.39,97094.0,0.6225
2025-12-15,30.66,31.64,30.66,31.01,23626.0,0.5317
2025-12-16,31.26,31.47,30.55,30.57,23093.0,0.5483
2025-12-17,31.75,31.75,30.19,30.2,26185.0,0.4000
2025-12-18,31.06,31.06,30.5,30.6,15166.0,0.5090
2025-12-21,31.08,31.48,30.6,31.18,38224.0,0.6713
2025-12-22,31.7,31.7,30.65,30.86,26809.0,0.4995
2025-12-23,31.0,31.88,30.9,30.99,25441.0,0.5889
2025-12-25,31.61,32.3,30.9,30.94,66861.0,0.6673
2025-12-28,31.56,33.89,31.5,31.87,80562.0,0.7835
2025-12-29,31.4,32.46,30.89,31.66,14838.0,0.7037
2025-12-30,33.2,35.0,31.29,32.72,113349.0,0.4728
2025-12-31,32.72,33.09,31.5,31.7,34302.0,0.6311
2026-01-01,33.0,33.0,31.5,31.81,18253.0,0.6626
2026-01-04,31.7,33.3,31.4,31.61,21020.0,0.6735
2026-01-05,33.25,33.25,31.1,31.31,7569.0,0.6646
2026-01-06,31.3,31.98,30.9,30.91,17731.0,0.8724
2026-01-07,32.01,32.01,30.8,30.8,19855.0,0.8911
2026-01-08,32.32,32.32,30.9,30.91,22220.0,0.9077
2026-01-11,30.91,31.5,29.2,30.5,15151.0,0.7601
2026-01-12,30.63,31.87,30.5,30.5,21838.0,0.8336
2026-01-13,32.98,32.98,30.47,30.54,33342.0,0.8804
2026-01-15,31.15,31.2,29.25,30.63,8907.0,0.7971
2026-01-18,30.69,35.5,30.18,34.18,299482.0,0.5128
2026-01-19,34.29,34.99,30.3,30.52,99526.0,0.4461
2026-01-20,29.2,31.8,29.2,30.52,38103.0,0.6019
2026-01-21,33.5,33.5,30.51,30.86,12101.0,0.5884
2026-01-22,30.86,32.0,30.5,30.56,23844.0,0.7526
2026-01-26,30.56,31.54,30.5,30.67,37275.0,0.9324
2026-01-27,30.51,31.5,30.51,30.76,18822.0,0.8224
2026-01-28,29.4,32.05,29.4,31.34,84754.0,0.9549
2026-01-29,31.9,31.9,30.0,30.59,107170.0,0.9444
2026-02-01,29.45,31.58,29.45,30.2,46316.0,0.9437
2026-02-02,29.25,31.49,29.25,30.5,27970.0,0.9169
2026-02-03,31.26,31.44,30.25,30.7,106181.0,0.9803
2026-02-04,30.15,31.14,30.1,30.5,46235.0,0.9643
2026-02-05,30.49,31.0,29.5,30.54,20538.0,0.6832
2026-02-08,30.54,31.6,29.78,31.26,19365.0,0.4650
2026-02-09,31.51,31.51,30.71,31.02,18312.0,0.4814
2026-02-10,30.55,31.3,30.5,30.63,45923.0,0.5269
2026-02-11,31.48,31.48,30.41,31.01,25587.0,0.5209
2026-02-12,31.39,31.39,30.16,30.63,27803.0,0.2910
2026-02-15,31.5,31.5,29.65,31.12,64012.0,0.3247
2026-02-16,31.51,31.99,30.8,31.04,31933.0,0.4648
2026-02-17,30.26,31.35,30.26,31.03,23347.0,0.5486
2026-02-18,30.3,31.24,30.3,30.58,30880.0,0.7918
2026-02-19,30.7,31.28,30.61,31.07,318708.0,0.9804
2026-02-22,31.19,32.48,30.7,31.78,283684.0,0.8879
2026-02-23,32.45,34.9,31.5,34.5,300634.0,0.6125
2026-02-24,36.7,40.38,35.5,37.16,747491.0,0.3030
2026-02-25,37.5,39.0,35.2,38.48,193002.0,0.5245
2026-02-26,38.5,40.35,34.05,35.54,270807.0,0.4322
2026-03-01,35.5,35.5,32.25,32.95,129760.0,0.5204
2026-03-03,32.1,35.35,32.1,33.87,57382.0,0.6257
2026-03-04,34.79,35.32,32.32,34.32,51213.0,0.5365
2026-03-05,35.34,38.48,34.98,35.88,227477.0,0.2885
2026-03-08,35.87,35.87,33.75,34.56,38380.0,0.6190
2026-03-09,36.8,41.47,35.03,38.85,418410.0,0.5431
2026-03-10,38.85,42.0,36.76,39.41,428693.0,0.5642
2026-03-11,39.8,39.8,35.1,36.18,504491.0,0.4193
2026-03-12,36.18,39.0,35.6,36.76,130190.0,0.6020
2026-03-15,35.72,36.53,34.2,35.23,207771.0,0.7773
2026-03-16,35.26,36.1,34.11,34.33,85843.0,0.6918
2026-03-17,34.84,35.0,34.0,34.26,59459.0,0.6567
2026-03-18,33.9,34.77,33.5,33.57,83212.0,0.5717
2026-03-19,33.31,34.0,32.91,32.98,61193.0,0.7468
2026-03-22,32.9,33.9,29.1,30.01,347825.0,0.7139
2026-03-23,29.8,31.54,29.8,31.19,115420.0,0.4626
2026-03-24,30.8,31.95,30.8,31.02,66919.0,0.4277
2026-03-26,31.02,31.78,30.4,30.46,76320.0,0.8311
2026-03-29,30.9,32.0,28.56,29.75,97814.0,0.7057
2026-03-31,30.25,31.79,30.0,30.23,99485.0,0.5579
2026-04-01,30.24,30.51,29.8,30.16,56852.0,0.4822
2026-04-05,30.0,30.7,30.0,30.33,47909.0,0.6727
2026-04-06,30.33,30.5,30.0,30.25,28681.0,0.6813
2026-04-07,31.2,31.49,30.3,30.4,101867.0,0.7545
2026-04-08,30.06,30.93,30.06,30.72,16407.0,0.6988
2026-04-09,31.41,33.85,30.57,33.49,204306.0,0.7016
2026-04-12,33.01,34.83,32.58,34.04,69462.0,0.5484
2026-04-14,35.05,35.85,34.06,35.04,65903.0,0.5890
2026-04-15,35.94,35.94,34.3,35.06,35054.0,0.5404
2026-04-16,34.4,36.45,34.4,36.05,82085.0,0.6725
2026-04-19,34.4,35.99,33.2,33.39,65288.0,0.6478
2026-04-20,33.0,34.18,33.0,33.01,16328.0,0.5751
2026-04-21,33.01,34.49,33.0,33.47,38074.0,0.5658
2026-04-22,33.68,33.78,32.6,32.79,27930.0,0.6912
2026-04-23,32.11,33.54,32.11,32.6,11285.0,0.5903
2026-04-26,32.6,32.96,31.2,31.89,30552.0,0.6038
2026-04-27,32.09,32.15,31.5,31.53,14862.0,0.7556
2026-04-28,31.52,33.7,31.52,32.12,25471.0,0.4828
2026-04-29,31.31,32.94,31.31,32.32,21140.0,0.5368
2026-05-03,32.34,33.17,31.57,32.05,19490.0,0.8267
2026-05-04,32.07,34.4,31.9,32.4,100401.0,0.7851
2026-05-05,32.4,32.96,31.9,32.11,23224.0,0.6845
2026-05-06,32.0,32.68,31.9,32.23,17411.0,0.8112
2026-05-07,32.0,32.4,31.35,32.1,63901.0,0.2854
2026-05-10,31.51,32.5,31.51,31.98,9654.0,0.7110
2026-05-11,31.99,33.0,30.01,30.63,38235.0,0.7752
2026-05-12,30.32,31.2,30.2,30.42,31845.0,0.6428
2026-05-13,30.08,31.47,30.08,30.92,13865.0,0.6485
2026-05-14,30.77,31.25,28.1,29.12,102209.0,0.5301
2026-05-17,29.9,31.2,28.3,30.28,60596.0,0.8573
2026-05-18,30.25,31.29,29.62,29.8,19237.0,0.8155
2026-05-19,30.0,30.2,29.6,29.71,11382.0,0.7606
2026-05-20,30.0,30.4,28.99,29.37,28687.0,0.7653
2026-05-21,29.0,29.73,28.5,28.98,27838.0,0.8292
2026-05-24,29.29,29.99,28.1,28.81,25382.0,0.8553
2026-05-25,28.81,29.35,28.39,28.99,14224.0,0.8121
2026-05-26,28.99,31.34,28.99,29.69,47255.0,0.6966
2026-05-27,29.69,29.69,29.69,29.69,0.0,0.6966
2026-05-28,29.83,30.52,29.03,29.68,23793.0,0.7117
2026-05-31,29.68,30.39,29.2,29.21,10996.0,0.8669
2026-06-01,29.75,29.98,29.4,29.49,16875.0,0.9560
2026-06-02,29.55,29.8,28.97,29.05,28810.0,0.8330
2026-06-03,29.0,29.94,28.8,29.32,15772.0,0.8330
