Date,Open,High,Low,Close,Volume,Delivery_Percentage
2023-06-05,13.2500,13.2500,12.8500,12.9000,53223.0000,0.3247
2023-06-06,12.9000,13.9500,12.9000,13.4000,379055.0000,0.6704
2023-06-07,13.4000,13.7500,12.9500,13.0000,72170.0000,0.5392
2023-06-08,13.0000,13.4000,13.0000,13.2000,47457.0000,0.4592
2023-06-11,13.1000,13.4000,13.0500,13.1500,19511.0000,0.1936
2023-06-12,13.1000,13.5000,13.1000,13.2500,69487.0000,0.1936
2023-06-13,13.2000,13.8000,13.0500,13.6000,137447.0000,0.1349
2023-06-14,13.7500,13.8000,13.1500,13.2500,53466.0000,0.6197
2023-06-15,13.2500,13.5000,13.1000,13.4500,35712.0000,0.4607
2023-06-18,13.2500,13.7000,13.1500,13.2000,35306.0000,0.5248
2023-06-19,13.3500,13.6000,13.1500,13.4000,54384.0000,0.1124
2023-06-20,13.4000,13.6000,13.2000,13.4000,28021.0000,0.6819
2023-06-21,13.6000,13.6500,13.2000,13.2500,63592.0000,0.5995
2023-06-22,13.2500,13.2500,13.0000,13.1000,25770.0000,0.2274
2023-06-25,13.2500,13.5000,13.0500,13.2500,39287.0000,0.2091
2023-06-26,13.2500,13.4500,13.1000,13.1500,21179.0000,0.2100
2023-06-27,13.1000,13.2500,13.0500,13.0500,18003.0000,0.2825
2023-06-29,12.9500,13.5000,12.9500,13.2000,35450.0000,0.4149
2023-07-02,13.4500,13.4500,13.1500,13.4000,32766.0000,0.3592
2023-07-03,13.5000,13.5000,13.1500,13.2000,21348.0000,0.2747
2023-07-04,13.2000,13.5000,13.1500,13.2000,29920.0000,0.4671
2023-07-05,13.2000,13.3500,13.1000,13.2500,35865.0000,0.1837
2023-07-06,13.2500,13.3000,12.5500,12.9000,80502.0000,0.2753
2023-07-09,12.9000,13.0000,12.7500,12.8000,21224.0000,0.3198
2023-07-10,12.8000,13.0000,12.7000,12.8000,17037.0000,0.3736
2023-07-11,13.0000,13.0000,12.6000,12.7000,41933.0000,0.5711
2023-07-12,12.7500,12.8500,12.6500,12.7000,20198.0000,0.2198
2023-07-13,12.7000,12.8000,12.6000,12.6500,27678.0000,0.4085
2023-07-16,12.6000,12.9000,12.6000,12.7500,24144.0000,0.4554
2023-07-17,12.7000,12.8500,12.5500,12.6000,25982.0000,0.1279
2023-07-18,12.6000,12.7500,12.5500,12.6500,25872.0000,0.4645
2023-07-19,12.7500,12.7500,12.4500,12.5500,61917.0000,0.2023
2023-07-20,12.5000,12.6000,12.5000,12.5000,47815.0000,0.1390
2023-07-23,12.5000,12.5000,12.2500,12.3000,49225.0000,0.6693
2023-07-24,12.4000,12.6000,12.3000,12.4500,26571.0000,0.6794
2023-07-25,12.5000,12.5500,12.3500,12.5000,19922.0000,0.5850
2023-07-26,12.6000,12.6000,12.4000,12.4000,25966.0000,0.2828
2023-07-27,12.4000,12.5000,12.2500,12.3500,39887.0000,0.1586
2023-07-30,12.3500,12.5500,12.3000,12.3500,38504.0000,0.5105
2023-07-31,12.5000,12.6000,12.3500,12.4500,46949.0000,0.3641
2023-08-01,12.5000,12.5000,12.2000,12.2000,45963.0000,0.1732
2023-08-02,12.4000,12.4000,12.1500,12.2500,15672.0000,0.3971
2023-08-03,12.4500,12.4500,12.2500,12.3000,14086.0000,0.1206
2023-08-06,12.2000,12.4000,12.1500,12.1500,62814.0000,0.6456
2023-08-07,12.1500,12.4000,12.1500,12.2500,17359.0000,0.2553
2023-08-08,12.2500,12.3500,12.1000,12.2000,38536.0000,0.4975
2023-08-09,12.2000,12.3000,12.1500,12.1500,32586.0000,0.2870
2023-08-10,12.2500,13.5000,12.1500,12.9000,512852.0000,0.4120
2023-08-13,12.9000,13.2000,12.6000,12.7500,104174.0000,0.4280
2023-08-15,12.6000,13.9000,12.6000,13.5000,439086.0000,0.2109
2023-08-16,13.6000,13.8000,13.2500,13.3500,182585.0000,0.6818
2023-08-17,13.3500,13.5000,12.9500,13.0500,89271.0000,0.5651
2023-08-20,13.2500,13.4000,13.0000,13.1000,38510.0000,0.6637
2023-08-21,13.2000,13.8000,12.9500,13.0500,91362.0000,0.6369
2023-08-22,13.1500,13.7500,13.1000,13.2500,210215.0000,0.4587
2023-08-23,13.3000,13.5000,13.1500,13.3000,103660.0000,0.6531
2023-08-24,13.3500,13.7000,13.1500,13.4500,73262.0000,0.1531
2023-08-27,13.5000,13.6000,13.0000,13.2000,142296.0000,0.2176
2023-08-28,13.2000,13.4000,13.0500,13.1000,57892.0000,0.1271
2023-08-29,13.2500,13.4500,13.0000,13.1000,122109.0000,0.2952
2023-08-30,13.1000,13.3000,12.9000,12.9500,99024.0000,0.3332
2023-08-31,13.0000,13.1500,12.9500,13.0500,72154.0000,0.2628
2023-09-03,13.1000,13.4500,13.0000,13.2500,193449.0000,0.5972
2023-09-04,13.4500,15.9000,13.3500,15.9000,4035942.0000,0.3141
2023-09-05,16.1000,17.4000,15.0500,16.7500,2250822.0000,0.2686
2023-09-06,17.0500,18.5500,16.6000,17.0000,1367174.0000,0.4256
2023-09-07,17.4000,17.4000,16.1000,16.2500,426389.0000,0.1846
2023-09-10,16.5000,16.6500,16.0500,16.1500,138717.0000,0.5813
2023-09-11,16.3500,16.3500,14.8000,14.9500,333266.0000,0.1447
2023-09-12,14.8500,15.8000,14.5500,15.6500,221663.0000,0.6921
2023-09-13,15.9500,16.0000,15.5000,15.5500,81241.0000,0.5633
2023-09-14,15.5000,16.5000,15.4000,16.2000,340043.0000,0.2192
2023-09-17,16.4500,16.4500,15.5000,15.7500,97704.0000,0.1033
2023-09-19,15.7000,15.7000,15.0500,15.2000,123029.0000,0.5893
2023-09-20,15.1500,15.7500,15.1000,15.2000,71633.0000,0.5241
2023-09-21,15.2000,15.4000,14.9500,15.0500,51555.0000,0.5374
2023-09-24,15.3000,15.6500,15.1500,15.4000,75749.0000,0.5628
2023-09-25,15.5000,15.5000,15.0500,15.1000,130187.0000,0.1444
2023-09-26,15.3000,15.4000,14.8000,15.0000,56339.0000,0.3151
2023-09-27,15.0000,15.3000,14.7500,14.8000,91717.0000,0.1695
2023-09-28,14.8000,15.0000,14.6000,14.7000,34641.0000,0.6179
2023-10-02,14.8000,15.0000,14.6000,14.8500,39180.0000,0.4740
2023-10-03,15.0000,15.0000,14.8000,14.9500,50070.0000,0.2985
2023-10-04,14.9000,15.0000,14.5500,14.7000,32080.0000,0.1381
2023-10-05,14.9500,15.2500,14.7500,15.0500,49813.0000,0.2866
2023-10-08,15.0500,15.1500,14.6000,14.7000,38518.0000,0.2951
2023-10-09,14.9000,15.0500,14.4000,14.6000,69657.0000,0.5378
2023-10-10,14.6500,16.3000,14.6000,16.1500,721276.0000,0.4825
2023-10-11,16.4000,16.4000,15.5000,15.9000,198664.0000,0.6323
2023-10-12,16.0000,16.0000,15.5000,15.5500,105239.0000,0.3833
2023-10-15,15.8000,16.0000,15.1500,15.4000,205377.0000,0.1718
2023-10-16,15.4500,15.7000,15.2500,15.3500,93352.0000,0.5279
2023-10-17,15.3500,15.5000,14.9500,15.1000,108343.0000,0.5565
2023-10-18,15.1000,15.2000,14.8000,14.9500,83492.0000,0.4368
2023-10-19,15.0500,15.4000,14.8000,15.0000,42346.0000,0.5626
2023-10-22,15.2000,15.2000,13.5500,13.8000,97044.0000,0.3963
2023-10-24,14.0500,14.5500,13.8000,14.0500,422522.0000,0.4136
2023-10-25,13.8500,14.1000,13.2500,13.5000,142623.0000,0.3565
2023-10-26,13.5000,14.1000,13.5000,13.7000,328751.0000,0.1153
2023-10-29,13.7000,14.1000,13.6500,13.7500,229545.0000,0.1647
2023-10-30,13.7500,13.9500,13.6000,13.8000,42043.0000,0.1189
2023-10-31,14.0000,14.1000,13.7000,13.8000,276966.0000,0.4818
2023-11-01,13.8000,14.2000,13.8000,13.9000,500116.0000,0.2886
2023-11-02,14.1000,14.4000,14.0000,14.0500,255031.0000,0.4051
2023-11-05,14.0000,14.7000,14.0000,14.5000,814688.0000,0.6445
2023-11-06,14.7000,14.7000,14.4000,14.4500,156940.0000,0.2496
2023-11-07,14.7500,15.0500,14.6000,14.8000,431103.0000,0.3462
2023-11-08,14.7500,15.0500,14.3500,14.4500,635529.0000,0.5533
2023-11-09,14.6500,16.2000,14.4500,15.6500,1345542.0000,0.2373
2023-11-12,15.7000,15.8000,15.3000,15.4500,327788.0000,0.1462
2023-11-14,15.5000,15.7500,15.2500,15.3500,473832.0000,0.2739
2023-11-15,15.3500,15.4500,15.0500,15.2000,872176.0000,0.1967
2023-11-16,15.1000,15.7500,14.9500,15.5000,955462.0000,0.6578
2023-11-19,15.3500,17.8000,15.3500,16.9500,2020875.0000,0.5849
2023-11-20,17.7500,18.2000,17.3000,17.9500,1713511.0000,0.4800
2023-11-21,18.1500,18.1500,16.4000,16.7000,653775.0000,0.6229
2023-11-22,16.7000,17.1500,16.5000,16.7000,274110.0000,0.5822
2023-11-23,16.9000,17.3000,16.8000,17.0500,498725.0000,0.2119
2023-11-27,17.4500,17.5000,16.6000,16.7500,705319.0000,0.6355
2023-11-28,17.0000,17.0000,16.5000,16.5500,734543.0000,0.4236
2023-11-29,16.6000,16.7500,15.8000,15.9500,525311.0000,0.5845
2023-11-30,16.2000,16.5000,15.9000,16.1500,484883.0000,0.6377
2023-12-03,16.5000,16.5000,16.0500,16.1500,77410.0000,0.2908
2023-12-04,16.3000,16.3500,15.7500,16.0500,221430.0000,0.1660
2023-12-05,16.4000,17.6000,16.3500,17.0000,972702.0000,0.2368
2023-12-06,17.2000,17.6500,16.5000,17.1000,323111.0000,0.3563
2023-12-07,17.3500,17.3500,16.6500,16.7500,146779.0000,0.5908
2023-12-10,17.0000,17.0000,16.4500,16.5500,219606.0000,0.6164
2023-12-11,16.7500,16.9500,16.3500,16.4500,192802.0000,0.1042
2023-12-12,16.6000,16.7500,16.2000,16.4000,132498.0000,0.4064
2023-12-13,16.5000,16.8000,16.1500,16.3500,155896.0000,0.3504
2023-12-14,16.5000,16.5000,16.1500,16.2000,81797.0000,0.2333
2023-12-17,16.2500,19.4000,16.2500,18.9000,2511418.0000,0.1719
2023-12-18,19.6000,19.8000,18.0500,18.9500,1926599.0000,0.3026
2023-12-19,18.7000,19.8000,17.9000,18.1500,1198050.0000,0.6657
2023-12-20,18.4000,19.3000,17.6000,18.9500,753780.0000,0.2939
2023-12-21,19.3500,19.3500,18.1500,18.3500,283104.0000,0.4113
2023-12-25,18.6000,18.8500,17.7500,18.2000,254886.0000,0.5218
2023-12-26,18.2500,18.7000,17.3000,17.5000,285999.0000,0.3182
2023-12-27,17.6000,17.7000,16.5000,16.6500,429151.0000,0.6831
2023-12-28,16.8000,17.9500,16.7500,17.5000,225203.0000,0.6775
2023-12-31,17.7000,19.0500,17.5500,18.3000,536360.0000,0.2511
2024-01-01,18.7500,20.8000,18.4500,20.2500,2746516.0000,0.3983
2024-01-02,20.4500,20.7000,19.6000,19.8500,615802.0000,0.2805
2024-01-03,19.9000,20.2000,19.4500,19.5500,357173.0000,0.2709
2024-01-04,19.6000,19.8000,18.4000,19.2500,570521.0000,0.1221
2024-01-07,19.2500,20.2000,19.0500,19.6500,542363.0000,0.4657
2024-01-08,19.8000,20.7000,19.2500,20.3500,692641.0000,0.4016
2024-01-09,20.0500,20.4500,19.8000,19.9500,359423.0000,0.1309
2024-01-10,19.9500,20.2000,19.4500,19.7000,178537.0000,0.2672
2024-01-11,19.7000,20.4000,19.2000,19.3500,395051.0000,0.6450
2024-01-14,19.4500,20.5500,19.3000,19.9500,545691.0000,0.2437
2024-01-15,20.5500,20.6000,19.0000,19.5500,438396.0000,0.1869
2024-01-16,19.5500,19.8000,18.8500,19.1500,172470.0000,0.3937
2024-01-17,19.0500,19.8000,18.4000,19.2000,199832.0000,0.6914
2024-01-18,19.4000,20.4000,19.1500,19.7500,464185.0000,0.2452
2024-01-22,19.5000,19.7500,17.9000,18.2500,307197.0000,0.5033
2024-01-23,18.3000,18.6000,17.7000,17.9000,522103.0000,0.5570
2024-01-24,18.0500,18.9500,18.0000,18.5500,505999.0000,0.2426
2024-01-28,18.8500,19.3500,18.3500,18.5500,473863.0000,0.5369
2024-01-29,18.8000,19.9000,18.1000,19.3000,881136.0000,0.3207
2024-01-30,19.3000,19.8000,18.8500,18.9500,461047.0000,0.4794
2024-01-31,19.2500,19.4000,18.5000,18.6500,328657.0000,0.4801
2024-02-01,18.8500,19.2000,18.4000,18.5000,312814.0000,0.4215
2024-02-04,18.7000,19.3500,18.0000,18.1500,255041.0000,0.1542
2024-02-05,18.4500,21.7500,18.0000,21.7500,4434228.0000,0.6012
2024-02-06,21.9000,24.3500,20.5000,23.0500,6061557.0000,0.2925
2024-02-07,23.7000,23.9000,22.4000,23.3500,1453883.0000,0.2119
2024-02-08,24.0000,24.0000,21.0000,21.9500,1023722.0000,0.1245
2024-02-11,22.0000,22.4000,19.3000,19.6500,702268.0000,0.4545
2024-02-12,19.0500,20.1500,18.7000,19.2500,471798.0000,0.5065
2024-02-13,18.8500,20.4000,18.8500,20.2500,410323.0000,0.1100
2024-02-14,20.8500,21.2000,20.4500,20.7000,326424.0000,0.4073
2024-02-15,21.0500,21.7000,20.8500,21.2500,374675.0000,0.2359
2024-02-18,21.6500,21.6500,20.6000,20.7000,221074.0000,0.4871
2024-02-19,20.7000,21.1500,20.0000,20.1500,259170.0000,0.2046
2024-02-20,20.2500,21.0000,19.4500,19.7000,426046.0000,0.5146
2024-02-21,19.9000,20.8500,19.2000,20.3500,471362.0000,0.3320
2024-02-22,20.5000,20.7000,19.8000,19.9000,205478.0000,0.6620
2024-02-25,20.0000,20.1000,19.0000,19.2000,349526.0000,0.1825
2024-02-26,19.3500,19.9500,18.5500,18.9000,351210.0000,0.3046
2024-02-27,19.0000,19.3000,17.9000,18.3000,353315.0000,0.1681
2024-02-28,18.3000,18.5000,17.9500,18.3500,104803.0000,0.6548
2024-02-29,18.5500,19.3500,18.3000,19.1500,375337.0000,0.6264
2024-03-03,19.3000,20.5000,18.6000,19.6000,1032288.0000,0.2548
2024-03-04,19.6000,20.7000,19.1500,19.4000,430469.0000,0.4960
2024-03-05,19.5000,19.6000,18.3500,18.8500,259658.0000,0.5903
2024-03-06,18.6000,19.2000,18.6000,18.7500,93568.0000,0.4331
2024-03-10,18.9500,18.9500,17.9000,18.2000,166822.0000,0.4178
2024-03-11,18.1500,18.2500,16.6000,16.8500,278542.0000,0.2451
2024-03-12,16.6000,17.0500,15.2000,15.4000,326514.0000,0.1559
2024-03-13,15.3000,16.1500,14.8000,15.7500,323350.0000,0.6383
2024-03-14,15.9000,16.3000,15.5500,15.9000,139280.0000,0.6403
2024-03-17,15.6500,16.3000,15.6000,15.9500,101099.0000,0.4799
2024-03-18,15.6500,16.1000,15.1500,15.3500,156688.0000,0.3034
2024-03-19,15.2500,15.6500,14.5500,14.9000,175876.0000,0.3095
2024-03-20,15.0000,16.5000,14.9500,16.0500,618976.0000,0.5356
2024-03-21,16.0500,16.1500,15.6000,15.7500,155728.0000,0.6383
2024-03-25,16.0000,16.1500,15.4000,15.5000,123171.0000,0.6323
2024-03-26,15.4000,15.7500,14.5000,14.8000,307388.0000,0.5679
2024-03-27,15.0000,15.4500,14.5500,14.6500,164925.0000,0.4852
2024-03-31,14.5000,16.2000,14.4000,16.1000,220502.0000,0.1505
2024-04-01,16.0500,16.7500,15.8000,16.6000,154019.0000,0.1970
2024-04-02,16.9500,17.6000,16.5500,17.3000,301469.0000,0.6391
2024-04-03,17.9500,20.2000,17.1000,19.5500,1437274.0000,0.4639
2024-04-04,19.5500,21.2500,18.8000,20.8500,1624947.0000,0.1055
2024-04-07,21.5500,21.5500,19.6000,19.7500,367879.0000,0.1609
2024-04-08,19.9500,20.9000,19.4000,19.5000,248792.0000,0.4981
2024-04-09,19.5500,20.2000,19.2000,19.3500,168929.0000,0.1030
2024-04-11,19.0500,19.9000,18.3000,18.9000,238854.0000,0.1965
2024-04-14,17.8000,19.3000,17.3000,19.1000,367991.0000,0.4292
2024-04-15,19.1000,21.0000,18.5000,21.0000,1304407.0000,0.5151
2024-04-17,21.4000,23.1000,21.1500,22.1500,1986566.0000,0.4912
2024-04-18,22.0000,22.2500,20.9000,22.1000,346575.0000,0.2346
2024-04-21,23.0500,23.2000,21.6000,22.4500,371283.0000,0.5273
2024-04-22,22.0500,22.9000,21.8000,22.0500,245867.0000,0.2423
2024-04-23,22.0000,22.5000,21.9000,22.0000,287056.0000,0.2952
2024-04-24,22.2500,22.2500,21.0000,21.3500,173168.0000,0.5479
2024-04-25,21.3500,21.8000,21.3500,21.6000,106113.0000,0.4898
2024-04-28,21.9500,21.9500,21.5000,21.7000,117777.0000,0.6095
2024-04-29,22.0000,22.7000,21.6500,22.0500,256537.0000,0.4946
2024-05-01,22.3500,23.2500,21.1500,22.9000,800970.0000,0.4410
2024-05-02,22.9500,23.0000,22.4000,22.6000,178059.0000,0.1562
2024-05-05,22.7500,22.8500,22.1500,22.4500,193243.0000,0.3206
2024-05-06,23.0000,23.0000,21.8000,22.1000,146988.0000,0.2591
2024-05-07,22.5000,22.7000,21.9500,22.0500,86039.0000,0.2464
2024-05-08,22.2000,22.2500,20.1500,20.8000,112511.0000,0.6838
2024-05-09,20.4000,20.8500,20.1500,20.6000,42582.0000,0.3359
2024-05-12,20.6000,20.8500,19.6000,20.2000,52836.0000,0.6352
2024-05-13,19.8000,22.0500,19.7000,21.5500,173093.0000,0.4787
2024-05-14,21.7500,22.2500,21.0000,21.5000,73362.0000,0.5769
2024-05-15,21.9000,21.9000,21.0000,21.0500,55536.0000,0.4016
2024-05-16,20.6000,22.2000,20.6000,21.4500,160020.0000,0.4461
2024-05-20,21.0000,22.0000,20.5000,21.2500,167699.0000,0.3955
2024-05-21,21.4000,21.4500,20.7000,21.0000,65009.0000,0.2171
2024-05-22,21.0500,21.3500,20.6000,20.7000,44899.0000,0.5335
2024-05-23,20.9500,21.0500,20.3000,20.5500,45103.0000,0.2685
2024-05-26,20.6000,20.9000,20.1000,20.2500,58758.0000,0.1146
2024-05-27,20.0000,20.4500,19.8500,19.9000,46062.0000,0.4873
2024-05-28,19.7000,21.1000,19.7000,20.7000,109213.0000,0.2063
2024-05-29,20.9500,21.1000,19.6500,20.1000,68494.0000,0.6643
2024-05-30,20.0000,20.3000,19.5500,19.7000,64092.0000,0.6724
2024-06-02,19.7500,20.4500,19.6500,19.8000,46103.0000,0.6489
2024-06-03,20.1500,20.1500,17.8500,18.3500,220207.0000,0.3221
2024-06-04,18.3500,18.9000,17.5000,18.3000,96204.0000,0.1093
2024-06-05,18.4500,19.8500,18.3500,19.5500,83179.0000,0.6570
2024-06-06,19.9000,21.5000,19.4000,20.0000,186798.0000,0.3569
2024-06-09,20.9000,20.9000,20.0100,20.2100,53281.0000,0.6800
2024-06-10,20.3800,20.8000,19.8700,20.2100,66456.0000,0.6782
2024-06-11,20.2500,20.5000,19.5600,19.9700,82620.0000,0.6118
2024-06-12,20.2800,20.2800,19.8500,19.9100,41243.0000,0.2767
2024-06-13,19.9500,20.9000,19.8800,20.0200,186163.0000,0.3311
2024-06-17,20.0500,20.4900,19.5000,19.6300,124568.0000,0.6107
2024-06-18,19.8500,19.8500,19.0100,19.1800,76697.0000,0.2902
2024-06-19,19.3800,19.5800,19.0000,19.0900,120780.0000,0.2017
2024-06-20,19.3000,19.5300,19.0500,19.4600,77355.0000,0.4341
2024-06-23,19.6500,20.1400,19.4000,19.4600,127706.0000,0.6617
2024-06-24,19.4900,19.9000,19.2600,19.3200,89751.0000,0.5176
2024-06-25,19.3000,19.8700,19.0000,19.5300,137472.0000,0.4420
2024-06-26,19.5300,19.6400,19.3600,19.5700,88836.0000,0.1583
2024-06-27,19.7900,19.7900,19.1700,19.6100,135717.0000,0.4690
2024-06-30,19.7400,20.7500,19.6200,20.5000,204523.0000,0.6940
2024-07-01,20.5100,21.8000,20.0200,21.1600,666799.0000,0.1841
2024-07-02,21.4800,21.7900,20.9000,20.9300,147120.0000,0.4110
2024-07-03,20.8000,21.1800,20.1500,20.2800,47598.0000,0.6264
2024-07-04,20.7000,21.8000,20.1000,21.0200,168096.0000,0.5445
2024-07-07,21.4400,21.9200,20.5000,21.0200,289215.0000,0.5182
2024-07-08,21.2400,21.9900,20.9500,20.9700,160139.0000,0.5215
2024-07-09,21.2300,21.2300,20.3000,20.6200,76323.0000,0.3157
2024-07-10,20.9500,20.9500,20.3000,20.3400,61478.0000,0.2762
2024-07-11,20.2500,21.4000,20.2500,21.1000,149216.0000,0.5856
2024-07-14,21.4700,21.4700,20.5800,20.7300,62068.0000,0.5861
2024-07-15,20.9700,20.9700,20.1200,20.2700,83161.0000,0.6202
2024-07-17,20.3200,21.2500,19.8100,20.4700,199309.0000,0.6479
2024-07-18,20.6700,20.7000,19.8100,20.0700,83057.0000,0.4068
2024-07-21,19.9500,20.0700,19.8000,19.8400,36919.0000,0.4009
2024-07-22,19.8500,20.2400,19.0000,19.7500,188638.0000,0.5790
2024-07-23,19.5200,21.7200,19.5200,21.6000,602057.0000,0.4900
2024-07-24,21.5000,23.2700,21.0500,21.7400,791043.0000,0.5212
2024-07-25,21.7400,22.1900,21.1200,21.2500,112955.0000,0.5775
2024-07-28,21.0600,21.4600,20.6100,20.9600,101884.0000,0.6340
2024-07-29,20.5200,21.6500,20.5200,21.1300,72161.0000,0.3028
2024-07-30,21.0000,21.4300,20.7000,20.8300,91101.0000,0.3253
2024-07-31,21.3900,21.3900,20.2500,20.4600,86999.0000,0.1564
2024-08-01,20.5000,20.9600,19.8600,20.7700,100794.0000,0.4470
2024-08-04,20.5200,20.5200,19.3900,19.8500,187224.0000,0.1216
2024-08-05,20.2500,20.3900,19.1100,19.4000,66892.0000,0.3794
2024-08-06,19.6700,21.4500,19.0200,20.3000,310962.0000,0.4256
2024-08-07,20.0500,20.8600,20.0000,20.1200,36935.0000,0.2719
2024-08-08,20.5300,22.7800,20.2000,21.8300,923112.0000,0.4545
2024-08-11,21.9900,22.4000,21.2300,21.3800,263170.0000,0.1183
2024-08-12,21.7800,21.7800,20.2000,20.3100,96181.0000,0.1224
2024-08-13,20.3700,20.5900,19.8100,19.9400,41942.0000,0.5936
2024-08-15,19.9500,20.4400,19.9500,20.1100,42862.0000,0.3161
2024-08-18,20.3400,22.8000,19.8400,22.3900,564336.0000,0.1762
2024-08-19,25.0000,25.3500,21.7400,23.5300,3481112.0000,0.4133
2024-08-20,23.5000,24.8400,22.8000,23.0400,896280.0000,0.5620
2024-08-21,23.3700,23.9000,22.5100,22.6100,161195.0000,0.2295
2024-08-22,22.6000,23.4900,21.9000,22.2500,367057.0000,0.4737
2024-08-25,22.7000,23.4500,22.1000,22.6400,98490.0000,0.1512
2024-08-26,22.8800,22.8800,21.0200,21.5300,221554.0000,0.1310
2024-08-27,21.6800,21.9900,20.8200,20.9800,202537.0000,0.4188
2024-08-28,21.1900,21.8000,20.6500,20.7300,139786.0000,0.4244
2024-08-29,20.9300,21.4400,20.0600,20.9800,521817.0000,0.4825
2024-09-01,21.3000,22.7400,20.8500,22.1400,637951.0000,0.5357
2024-09-02,22.5400,22.8100,22.0000,22.5800,282024.0000,0.6855
2024-09-03,21.6200,22.4800,21.6200,22.0100,91885.0000,0.4098
2024-09-04,22.0000,22.7400,21.8500,21.9800,185383.0000,0.2938
2024-09-05,22.1700,22.4900,21.5500,21.9700,269622.0000,0.5771
2024-09-08,21.9600,22.2200,21.5200,21.7900,121701.0000,0.2625
2024-09-09,21.7300,22.2900,21.7300,21.9500,64646.0000,0.3634
2024-09-10,21.9500,22.4700,21.9500,22.0300,112487.0000,0.1471
2024-09-11,22.0700,22.3000,21.4500,21.5600,85942.0000,0.1152
2024-09-12,21.8800,22.5000,21.6000,21.9600,401079.0000,0.6776
2024-09-15,22.3800,22.4000,21.8100,21.8300,85258.0000,0.6016
2024-09-16,21.5000,22.0000,21.5000,21.7800,58868.0000,0.5176
2024-09-17,21.9600,21.9600,20.8000,21.1500,179999.0000,0.3454
2024-09-18,21.4300,21.4400,20.4500,20.5300,138484.0000,0.2040
2024-09-19,20.9900,21.4000,20.6800,21.0900,123072.0000,0.1939
2024-09-22,21.1000,21.1000,20.8500,20.9100,50349.0000,0.2501
2024-09-23,20.9600,21.4500,20.6500,20.8700,81450.0000,0.4295
2024-09-24,20.9800,20.9900,19.9700,20.0200,267600.0000,0.5288
2024-09-25,20.2800,20.4900,19.9900,20.1900,111644.0000,0.4961
2024-09-26,20.6400,20.6400,20.0200,20.1600,64691.0000,0.2680
2024-09-29,20.1600,20.6000,20.0000,20.1500,159350.0000,0.6729
2024-09-30,20.2800,21.0000,20.0500,20.7100,200887.0000,0.5427
2024-10-02,20.9800,20.9800,20.1100,20.1900,85454.0000,0.4326
2024-10-03,20.1900,20.4900,19.4500,19.6100,139100.0000,0.4670
2024-10-06,19.8700,19.8700,18.6100,18.7700,107194.0000,0.3518
2024-10-07,19.0000,19.6800,18.6900,19.2800,68949.0000,0.2486
2024-10-08,19.6600,20.6600,19.3100,20.2800,167954.0000,0.3136
2024-10-09,20.4400,20.8900,20.1500,20.3100,125314.0000,0.5547
2024-10-10,20.4400,20.5900,19.8200,19.9200,61127.0000,0.1086
2024-10-13,20.2500,20.2500,19.6500,19.8800,83934.0000,0.1696
2024-10-14,19.5500,20.0000,19.5200,19.5800,40402.0000,0.1276
2024-10-15,19.7500,19.7500,19.0000,19.2700,79476.0000,0.1244
2024-10-16,19.2700,19.4700,18.8000,18.9400,71043.0000,0.6133
2024-10-17,18.8200,19.1900,18.6500,19.0600,42771.0000,0.5222
2024-10-20,19.4400,19.4400,18.7000,18.7200,23218.0000,0.3845
2024-10-21,18.7500,18.9100,18.0100,18.0500,31415.0000,0.1587
2024-10-22,18.0000,18.3900,17.2200,17.5200,145645.0000,0.3950
2024-10-23,17.3300,17.9800,17.1200,17.8400,76989.0000,0.3841
2024-10-24,17.8400,17.8500,17.2500,17.4000,49865.0000,0.2039
2024-10-27,17.1000,17.8700,17.1000,17.2300,51233.0000,0.3603
2024-10-28,17.7900,17.7900,16.9100,17.0900,62044.0000,0.3391
2024-10-29,17.4500,17.9500,17.0900,17.7100,50401.0000,0.4695
2024-10-30,17.4100,18.5000,17.4100,17.9600,68500.0000,0.4811
2024-10-31,18.4800,18.7700,18.0200,18.6200,27538.0000,0.1272
2024-11-03,19.0500,20.1000,18.8900,19.2100,143263.0000,0.3248
2024-11-04,19.2600,19.9600,19.2600,19.3800,76329.0000,0.4755
2024-11-05,19.4000,19.6900,18.8600,19.4700,46019.0000,0.4019
2024-11-06,19.4800,19.5100,18.9200,19.0900,25913.0000,0.6139
2024-11-07,19.1900,19.1900,18.6000,18.7700,35145.0000,0.4952
2024-11-10,19.1500,19.3000,18.9000,19.0800,28894.0000,0.1978
2024-11-11,19.2400,19.2400,18.0000,18.2300,37599.0000,0.1423
2024-11-12,18.2200,18.2200,17.1100,17.2300,57046.0000,0.4855
2024-11-13,17.5800,17.7200,17.3000,17.5800,23935.0000,0.1159
2024-11-17,17.5800,17.7000,16.6200,16.9200,49551.0000,0.4515
2024-11-18,17.2300,17.6400,16.7700,16.9600,74298.0000,0.6641
2024-11-20,16.8000,17.1200,16.2000,16.3300,54297.0000,0.4453
2024-11-21,16.6000,16.8400,16.3700,16.7100,24507.0000,0.3329
2024-11-24,16.9900,17.5500,16.9900,17.1500,67404.0000,0.4860
2024-11-25,17.4900,17.5500,16.2000,17.1500,39957.0000,0.3750
2024-11-26,17.4400,17.5900,17.1600,17.3300,23814.0000,0.4274
2024-11-27,17.6900,18.1000,17.3100,17.7200,55293.0000,0.6649
2024-11-28,17.9800,18.4000,17.6600,17.8900,22201.0000,0.3317
2024-12-01,18.3000,19.3400,18.0100,18.8600,169219.0000,0.6767
2024-12-02,18.9600,19.2100,18.7100,18.9900,68582.0000,0.6432
2024-12-03,18.6400,20.0000,18.6100,19.0000,84265.0000,0.2175
2024-12-04,19.0000,19.5500,18.7000,19.3400,43020.0000,0.1416
2024-12-05,19.4900,19.6000,18.9500,19.1500,65135.0000,0.1605
2024-12-08,19.1500,20.7500,19.1500,19.7000,265881.0000,0.1109
2024-12-09,19.8900,19.9300,19.3000,19.5600,51141.0000,0.1567
2024-12-10,19.7000,19.7400,19.2500,19.3000,36732.0000,0.5098
2024-12-11,19.5000,19.5000,19.0700,19.2100,86996.0000,0.1427
2024-12-12,19.2100,19.4800,18.7400,19.0000,44201.0000,0.2914
2024-12-15,18.8300,20.1300,18.8300,19.5600,145246.0000,0.6069
2024-12-16,19.0000,19.6400,18.7600,18.9500,55572.0000,0.1140
2024-12-17,18.7000,19.4300,18.6000,18.6800,36704.0000,0.5887
2024-12-18,18.6800,19.0300,18.4600,18.8100,87725.0000,0.2691
2024-12-19,18.9900,19.1000,18.7100,18.7500,78285.0000,0.1709
2024-12-22,18.7500,18.9300,18.1000,18.1600,51379.0000,0.5180
2024-12-23,18.0500,18.3000,17.3100,17.9700,53752.0000,0.4774
2024-12-25,17.5200,18.0800,17.5200,17.7800,24032.0000,0.6265
2024-12-26,17.5500,17.9900,17.5500,17.8300,26303.0000,0.5410
2024-12-29,17.5300,17.9200,17.5300,17.6300,28077.0000,0.5821
2024-12-30,17.3600,18.9700,17.3500,18.1800,10838.0000,0.2692
2024-12-31,18.2000,18.7900,18.1100,18.1800,79880.0000,0.2065
2025-01-01,18.4800,18.6800,18.1800,18.5200,22543.0000,0.5504
2025-01-02,18.4400,18.9900,18.1700,18.3000,37626.0000,0.5841
2025-01-05,18.1700,18.3900,17.3800,17.4400,42507.0000,0.6943
2025-01-06,17.5700,18.1500,17.5700,18.0100,36407.0000,0.3476
2025-01-07,18.3000,18.3000,18.0000,18.0100,28787.0000,0.3232
2025-01-08,18.0300,18.5400,17.5000,18.0600,40184.0000,0.5658
2025-01-09,18.4900,18.4900,17.0000,17.2000,68615.0000,0.3045
2025-01-12,17.0000,17.6000,16.2500,16.8900,145736.0000,0.6585
2025-01-13,17.0800,17.2800,16.7100,17.0100,37281.0000,0.6150
2025-01-14,16.7800,17.3800,16.7800,17.1000,50716.0000,0.3574
2025-01-15,17.3900,17.3900,17.0000,17.1900,28612.0000,0.5505
2025-01-16,17.0100,17.4500,16.5000,16.8800,53823.0000,0.5527
2025-01-19,17.1900,17.1900,16.8900,17.0600,18396.0000,0.1619
2025-01-20,17.0600,17.1900,16.4800,16.5100,43094.0000,0.6415
2025-01-21,16.5200,16.8700,16.2500,16.5900,17317.0000,0.4032
2025-01-22,16.5500,17.5000,16.3000,16.5600,99971.0000,0.5959
2025-01-23,16.8600,16.8600,14.6000,15.1400,183985.0000,0.2920
2025-01-26,15.1400,15.1400,14.5000,14.5400,430577.0000,0.6373
2025-01-27,14.8000,15.9500,14.5000,15.3900,97490.0000,0.3335
2025-01-28,15.6500,16.4000,15.4600,16.0800,88820.0000,0.1065
2025-01-29,16.0000,18.2000,16.0000,17.8300,197686.0000,0.6432
2025-01-30,18.2500,20.0500,17.8500,19.4800,491499.0000,0.1548
2025-01-31,19.4900,21.2000,18.5300,20.0700,259985.0000,0.2916
2025-02-02,20.0600,20.0600,19.5000,19.6200,68335.0000,0.6700
2025-02-03,19.9800,20.2500,19.5000,19.9000,50915.0000,0.6704
2025-02-04,20.0000,20.0000,19.0000,19.2400,45610.0000,0.4441
2025-02-05,19.6500,20.8000,18.5000,20.4300,263486.0000,0.4791
2025-02-06,20.0000,20.3900,19.1100,19.5000,102317.0000,0.3691
2025-02-09,20.0000,20.0000,19.0000,19.3500,47454.0000,0.2759
2025-02-10,19.9700,20.6000,19.0000,20.2800,297837.0000,0.2972
2025-02-11,20.4800,22.6900,20.3600,22.2200,1727835.0000,0.5035
2025-02-12,22.1800,23.5000,21.2000,22.6100,603448.0000,0.5514
2025-02-13,23.4000,23.4000,21.9200,22.4300,244385.0000,0.5749
2025-02-16,22.9500,23.2500,22.0000,22.5200,221842.0000,0.5738
2025-02-17,23.4900,23.4900,22.0000,22.9500,308089.0000,0.1547
2025-02-18,23.2900,27.0000,23.0100,25.2600,874064.0000,0.3967
2025-02-19,25.5000,29.0000,25.0700,27.1300,1263696.0000,0.1345
2025-02-20,27.8000,31.2000,27.5000,30.2200,1149173.0000,0.4297
2025-02-23,32.0000,36.2600,31.3000,36.2600,5656998.0000,0.3649
2025-02-24,35.0000,36.0000,34.4400,34.4400,219078.0000,0.6326
2025-02-26,32.7100,32.7100,32.7100,32.7100,7447.0000,0.3105
2025-02-27,31.0700,31.0700,31.0700,31.0700,9825.0000,0.1702
2025-03-02,29.5100,29.5100,29.5100,29.5100,89287.0000,0.1858
2025-03-03,28.0800,28.0800,28.0300,28.0300,8686.0000,0.5569
2025-03-04,26.6200,26.6200,26.6200,26.6200,49996.0000,0.4709
2025-03-05,25.2800,25.2800,25.2800,25.2800,8457.0000,0.1607
2025-03-06,24.0100,26.5400,24.0100,26.5400,356098.0000,0.1505
2025-03-09,27.6000,27.8000,25.2100,25.2100,165006.0000,0.5206
2025-03-10,23.9500,23.9500,23.9400,23.9400,213297.0000,0.1437
2025-03-11,22.7400,24.1000,22.7400,23.8100,371268.0000,0.5931
2025-03-12,23.0000,25.0000,22.6100,25.0000,340195.0000,0.5237
2025-03-16,24.0500,24.5000,23.7500,23.7500,78720.0000,0.1488
2025-03-17,23.7500,23.7500,23.7500,23.7500,0.0000,0.1509
2025-03-18,25.4500,25.4600,24.2600,25.4600,63768.0000,0.6920
2025-03-19,26.6400,26.7300,26.5000,26.7300,20941.0000,0.3246
2025-03-20,27.7000,28.0600,27.0500,28.0600,98970.0000,0.3224
2025-03-23,29.4000,29.4600,28.5000,29.4600,15486.0000,0.5877
2025-03-24,30.9300,30.9300,30.9300,30.9300,44249.0000,0.6683
2025-03-25,31.5400,31.5400,30.3100,31.5400,119962.0000,0.6916
2025-03-26,32.1700,32.1700,32.1700,32.1700,30533.0000,0.5520
2025-03-27,32.8100,32.8100,32.8100,32.8100,28661.0000,0.3258
2025-03-31,33.4600,33.4600,33.4600,33.4600,16372.0000,0.1501
2025-04-01,34.1200,34.1200,34.1200,34.1200,30920.0000,0.5663
2025-04-02,34.8000,34.8000,34.8000,34.8000,22441.0000,0.4350
2025-04-03,35.4900,35.4900,35.4900,35.4900,37274.0000,0.3545
2025-04-06,36.1900,36.1900,36.1900,36.1900,155576.0000,0.6438
2025-04-07,36.9100,36.9100,36.9100,36.9100,36527.0000,0.1667
2025-04-08,37.6400,37.6400,37.6400,37.6400,46587.0000,0.3956
2025-04-10,38.3900,38.3900,38.3900,38.3900,30197.0000,0.1068
2025-04-14,39.1500,39.1500,39.1500,39.1500,31442.0000,0.3812
2025-04-15,39.9300,39.9300,39.9300,39.9300,23110.0000,0.1338
2025-04-16,40.7200,40.7200,40.7200,40.7200,21244.0000,0.1713
2025-04-20,39.9000,39.9000,39.9000,39.9000,281187.0000,0.1705
2025-04-21,39.1000,39.1000,39.1000,39.1000,272985.0000,0.4895
2025-04-22,38.3100,38.3100,38.3100,38.3100,29895.0000,0.5476
2025-04-23,37.5400,37.5600,37.5400,37.5400,523065.0000,0.4500
2025-04-24,36.7800,36.7800,36.7800,36.7800,62507.0000,0.6773
2025-04-27,36.0400,36.7800,36.0400,36.0400,261861.0000,0.3249
2025-04-28,35.3100,35.3100,35.3100,35.3100,49220.0000,0.2714
2025-04-29,34.6000,34.6000,34.6000,34.6000,23775.0000,0.6212
2025-05-01,33.9000,33.9000,33.9000,33.9000,8873.0000,0.2342
2025-05-04,32.5000,33.8900,32.2000,32.2000,864614.0000,0.6779
2025-05-05,30.5900,30.5900,30.5900,30.5900,124674.0000,0.1073
2025-05-06,29.0600,32.1100,29.0600,30.8300,364545.0000,0.6819
2025-05-07,32.3700,32.3700,31.8900,32.3600,199465.0000,0.1259
2025-05-08,31.0000,33.9700,30.7400,33.9500,161434.0000,0.6347
2025-05-11,35.6400,35.6400,35.3800,35.6400,135622.0000,0.4166
2025-05-12,37.4200,37.4200,37.4200,37.4200,87196.0000,0.6958
2025-05-13,39.2900,39.2900,35.6000,37.7400,1085952.0000,0.1443
2025-05-14,36.9800,36.9800,36.9800,36.9800,76078.0000,0.4323
2025-05-15,37.5000,37.5000,37.0500,37.5000,194376.0000,0.6816
2025-05-18,37.5000,37.5000,37.1000,37.5000,59507.0000,0.4139
2025-05-19,38.2500,38.2500,37.8300,38.2500,50707.0000,0.4776
2025-05-20,39.0100,39.0100,39.0100,39.0100,11730.0000,0.5174
2025-05-21,39.7900,39.7900,39.7900,39.7900,21454.0000,0.3727
2025-05-22,40.5800,40.5800,40.5800,40.5800,10670.0000,0.4765
2025-05-25,41.3900,41.3900,41.3900,41.3900,8638.0000,0.4506
2025-05-26,42.2100,42.2100,42.2100,42.2100,12604.0000,0.6407
2025-05-27,43.0500,43.0500,43.0500,43.0500,17800.0000,0.1273
2025-05-28,43.9100,43.9100,43.9100,43.9100,8293.0000,0.2686
2025-05-29,43.0300,44.7800,43.0300,43.0300,860078.0000,0.6702
2025-06-01,42.1600,42.1600,42.1600,42.1600,95544.0000,0.6342
2025-06-02,41.3100,41.3100,41.3100,41.3100,25827.0000,0.3734
2025-06-03,40.4800,40.4800,40.4800,40.4800,37980.0000,0.4721
2025-06-04,39.6700,39.6700,39.6700,39.6700,47978.0000,0.2664
2025-06-05,38.8700,38.8700,38.8700,38.8700,21615.0000,0.2129
2025-06-08,39.6400,39.6400,38.0900,39.6400,212381.0000,0.3782
2025-06-09,38.8400,38.8400,38.8400,38.8400,59702.0000,0.3120
2025-06-10,38.0600,38.0600,38.0600,38.0600,41232.0000,0.4502
2025-06-11,37.2900,37.2900,37.2900,37.2900,170845.0000,0.1466
2025-06-12,36.5400,36.5400,36.5400,36.5400,38358.0000,0.6846
2025-06-15,35.8000,35.8000,35.8000,35.8000,7095.0000,0.6917
2025-06-16,35.0800,35.0800,35.0800,35.0800,46973.0000,0.5189
2025-06-17,34.3700,35.7800,34.3700,34.3700,675387.0000,0.4217
2025-06-18,33.6800,33.6800,33.6800,33.6800,126661.0000,0.2857
2025-06-19,33.0000,33.0000,33.0000,33.0000,440710.0000,0.5883
2025-06-22,31.3500,31.3500,31.3500,31.3500,89928.0000,0.5108
2025-06-23,29.7800,32.9100,29.7800,31.7100,820012.0000,0.1976
2025-06-24,30.6000,32.4000,30.1200,31.8300,277473.0000,0.6466
2025-06-25,32.0000,32.9000,31.1500,31.3300,46820.0000,0.5935
2025-06-26,30.7000,32.8900,30.7000,32.8800,96552.0000,0.6699
2025-06-29,33.4000,34.5200,33.4000,34.5200,158910.0000,0.5354
2025-06-30,36.2400,36.2400,35.0100,35.1500,265582.0000,0.4680
2025-07-01,36.0000,36.0000,33.3900,33.7500,285130.0000,0.3509
2025-07-02,33.4000,34.2500,32.0700,32.1400,140776.0000,0.6596
2025-07-03,31.8500,32.5000,31.0500,32.0700,63461.0000,0.6196
2025-07-06,31.4000,32.6900,31.0000,32.1100,32457.0000,0.1271
2025-07-07,31.9900,32.7000,30.6500,32.0000,22583.0000,0.1158
2025-07-08,32.0000,32.9000,31.1000,31.4200,45210.0000,0.3259
2025-07-09,31.5100,32.4500,31.0000,31.2200,71143.0000,0.5863
2025-07-10,32.2000,32.2000,31.0000,31.7500,35786.0000,0.6924
2025-07-13,32.2400,32.2400,31.0700,31.5700,16558.0000,0.1903
2025-07-14,31.5700,32.1000,30.9600,31.9300,48930.0000,0.4565
2025-07-15,32.0000,33.5200,32.0000,33.5200,29399.0000,0.3285
2025-07-16,35.1000,35.1900,35.0000,35.1900,269257.0000,0.6819
2025-07-17,34.2200,36.9400,34.1000,36.9400,145115.0000,0.6053
2025-07-20,35.5100,38.0000,35.0900,35.9200,556017.0000,0.6030
2025-07-21,35.2000,35.2000,35.2000,35.2000,53617.0000,0.3812
2025-07-22,34.4900,34.4900,34.4900,34.4900,3055.0000,0.3489
2025-07-23,33.8000,33.8000,33.8000,33.8000,927.0000,0.2640
2025-07-24,33.1200,33.1200,33.1200,33.1200,25133.0000,0.1338
2025-07-27,32.4500,32.4500,32.4500,32.4500,17643.0000,0.6188
2025-07-28,33.0900,33.0900,32.4500,33.0900,95494.0000,0.5877
2025-07-29,33.0500,33.6900,33.0000,33.0500,14824.0000,0.6998
2025-07-30,33.4500,33.4500,33.0000,33.4500,17210.0000,0.6980
2025-07-31,33.6000,33.6000,33.6000,33.6000,24953.0000,0.4333
2025-08-03,34.2700,34.2700,33.0000,34.2700,14652.0000,0.5614
2025-08-04,34.8800,34.9200,34.8800,34.8800,13276.0000,0.6669
2025-08-05,34.1800,34.8800,34.1800,34.1800,1591.0000,0.6098
2025-08-06,33.4900,33.9900,33.4900,33.4900,118.0000,0.2484
2025-08-07,33.0000,33.4900,32.8200,33.0000,32051.0000,0.3703
2025-08-10,33.0000,33.0000,32.4100,33.0000,4094.0000,0.1775
2025-08-11,32.3400,33.0000,32.3400,32.3400,4823.0000,0.6724
2025-08-12,31.7000,32.5000,31.7000,31.7000,24098.0000,0.4637
2025-08-13,31.0600,31.1100,31.0600,31.0600,3650.0000,0.2372
2025-08-17,30.4300,31.2100,30.4300,30.4300,14696.0000,0.5030
2025-08-18,31.0300,31.0300,30.6100,31.0300,53106.0000,0.4709
2025-08-19,31.6000,31.6500,31.4900,31.6000,16197.0000,0.3149
2025-08-20,32.2300,32.2300,32.0000,32.2300,24766.0000,0.1681
2025-08-21,32.8700,32.8700,32.8700,32.8700,2601.0000,0.5029
2025-08-24,33.0000,33.5200,32.9800,33.0000,46052.0000,0.4122
2025-08-25,32.3400,32.3400,32.3400,32.3400,47021.0000,0.5634
2025-08-27,31.6900,31.7500,31.6900,31.6900,13156.0000,0.4121
2025-08-28,31.1000,31.6000,31.0500,31.1000,41353.0000,0.6113
2025-08-31,31.4100,32.2000,29.6300,31.1600,49878.0000,0.4311
2025-09-01,30.1500,31.5200,30.0000,30.1700,27743.0000,0.4366
2025-09-02,30.0000,30.6800,29.1500,30.1800,34576.0000,0.6260
2025-09-03,29.9500,30.9000,29.2000,29.5300,30932.0000,0.3421
2025-09-04,29.5700,30.0000,29.0000,29.6100,16345.0000,0.1804
2025-09-07,29.6100,31.0700,29.5000,30.2700,8810.0000,0.1173
2025-09-08,29.8000,30.8700,29.2600,30.0000,47216.0000,0.5531
2025-09-09,29.5100,31.0000,29.4000,30.5000,23235.0000,0.4722
2025-09-10,29.9000,31.0000,29.5000,30.6000,20208.0000,0.5224
2025-09-11,30.2600,31.4100,30.2100,31.0300,16174.0000,0.2278
2025-09-14,32.5000,37.2300,32.5000,33.9700,898722.0000,0.1818
2025-09-15,34.0000,35.9900,33.6000,34.8700,149365.0000,0.1087
2025-09-16,35.0000,35.0000,32.2000,32.8500,112132.0000,0.3104
2025-09-17,32.8000,36.1800,32.2600,34.5000,132921.0000,0.4540
2025-09-18,34.4900,35.9500,33.0000,34.7900,65706.0000,0.3353
2025-09-21,35.4500,35.4500,33.0100,33.1300,36939.0000,0.3625
2025-09-22,33.0000,34.6000,32.4900,32.8600,572020.0000,0.6425
2025-09-23,33.5000,33.9000,32.0000,32.2000,57140.0000,0.3090
2025-09-24,33.0100,33.0600,31.3000,32.0300,36075.0000,0.4084
2025-09-25,32.0300,33.0300,31.2000,31.3800,23145.0000,0.5702
2025-09-28,30.5500,33.0000,30.5500,30.9300,57589.0000,0.3379
2025-09-29,30.5500,31.9500,30.5500,30.9600,28094.0000,0.4733
2025-09-30,30.1000,31.0900,29.2000,30.5500,38738.0000,0.6174
2025-10-02,29.5000,33.5000,29.5000,33.1000,85307.0000,0.6697
2025-10-05,32.5100,33.7900,32.5000,32.5200,37376.0000,0.1882
2025-10-06,32.1000,33.0000,32.0100,32.2600,35119.0000,0.6560
2025-10-07,32.9800,33.0000,31.0000,31.5700,46363.0000,0.3953
2025-10-08,31.5200,33.4300,31.0100,31.9200,29561.0000,0.2549
2025-10-09,31.2000,32.6000,31.2000,31.4900,14397.0000,0.3755
2025-10-12,31.0100,31.5100,30.0100,30.1800,48814.0000,0.6880
2025-10-13,30.8700,31.0000,29.8500,30.2200,71252.0000,0.3956
2025-10-14,29.7500,30.9100,29.6300,29.9100,40992.0000,0.2973
2025-10-15,30.0500,33.0200,30.0500,30.9400,141910.0000,0.4800
2025-10-16,30.5300,30.9000,29.4000,29.7100,75588.0000,0.2441
2025-10-19,29.1100,30.5000,29.1100,29.9000,25277.0000,0.1455
2025-10-20,30.2000,31.0000,29.0000,29.8200,16281.0000,0.1773
2025-10-22,29.4200,30.0000,29.4200,29.8900,11742.0000,0.1768
2025-10-23,29.6300,30.0000,29.5000,29.9400,24142.0000,0.1911
2025-10-26,29.5600,29.9900,29.0200,29.7900,37934.0000,0.1833
2025-10-27,29.3000,29.9200,29.2700,29.8000,31096.0000,0.4845
2025-10-28,29.8000,30.1700,29.4300,29.5500,18764.0000,0.2091
2025-10-29,29.1900,30.4700,29.1900,29.7900,31172.0000,0.3074
2025-10-30,29.3300,30.0000,29.0000,29.1400,19506.0000,0.6381
2025-11-02,29.2000,29.9000,29.1900,29.3000,11459.0000,0.3844
2025-11-03,29.3900,29.3900,27.3500,28.2600,25781.0000,0.5005
2025-11-05,28.3000,28.9000,28.0300,28.5000,27537.0000,0.2034
2025-11-06,27.5000,28.8000,27.0500,28.1600,36353.0000,0.2154
2025-11-09,27.1700,30.6900,27.1700,29.2200,28887.0000,0.1245
2025-11-10,29.3600,29.3700,28.4000,28.9400,12152.0000,0.2014
2025-11-11,28.9300,29.0900,28.4100,28.8700,7515.0000,0.2672
2025-11-12,28.2500,29.4900,28.0000,29.0200,111427.0000,0.2062
2025-11-13,29.4900,30.0000,28.6000,29.2900,22137.0000,0.1532
2025-11-16,30.0000,30.1900,29.5000,29.9000,25781.0000,0.1724
2025-11-17,29.7000,30.0000,29.1900,29.7300,38362.0000,0.3765
2025-11-18,30.5000,32.0000,29.2500,29.8700,123417.0000,0.2238
2025-11-19,30.5000,30.5000,29.1600,29.7300,84265.0000,0.3186
2025-11-20,29.1700,30.0000,28.3000,29.1300,96140.0000,0.4021
2025-11-23,28.3000,29.1900,28.0000,28.2400,32501.0000,0.5142
2025-11-24,27.3300,29.9000,27.3300,28.7900,168119.0000,0.1236
2025-11-25,30.8500,30.8500,28.2000,28.8800,110489.0000,0.5796
2025-11-26,29.9400,30.4000,28.3100,29.8000,66309.0000,0.4767
2025-11-27,30.1000,30.6600,29.3000,30.2100,15229.0000,0.1491
2025-11-30,29.9000,31.4800,29.1900,29.7500,22785.0000,0.6241
2025-12-01,29.0200,30.8700,29.0200,29.6900,41841.0000,0.6525
2025-12-02,30.5900,30.6000,29.2600,30.0900,36203.0000,0.1366
2025-12-03,30.9200,30.9200,29.9500,29.9900,34798.0000,0.2661
2025-12-04,30.7900,30.7900,29.5500,30.1400,27776.0000,0.5837
2025-12-07,30.0100,30.3300,29.2600,29.9900,34446.0000,0.5490
2025-12-08,29.8000,30.8400,29.8000,30.2800,118916.0000,0.2107
2025-12-09,30.9000,31.5200,30.2100,31.0200,36752.0000,0.2256
2025-12-10,31.2900,32.0100,30.8000,31.0700,26789.0000,0.3223
2025-12-11,31.9100,31.9800,30.9500,31.1700,38074.0000,0.3907
2025-12-14,30.6000,31.9900,30.0000,31.3900,97094.0000,0.4710
2025-12-15,30.6600,31.6400,30.6600,31.0100,23626.0000,0.3213
2025-12-16,31.2600,31.4700,30.5500,30.5700,23093.0000,0.3775
2025-12-17,31.7500,31.7500,30.1900,30.2000,26185.0000,0.5485
2025-12-18,31.0600,31.0600,30.5000,30.6000,15166.0000,0.1220
2025-12-21,31.0800,31.4800,30.6000,31.1800,38224.0000,0.2515
2025-12-22,31.7000,31.7000,30.6500,30.8600,26809.0000,0.5280
2025-12-23,31.0000,31.8800,30.9000,30.9900,25441.0000,0.6371
2025-12-25,31.6100,32.3000,30.9000,30.9400,66861.0000,0.4070
2025-12-28,31.5600,33.8900,31.5000,31.8700,80562.0000,0.4193
2025-12-29,31.4000,32.4600,30.8900,31.6600,14838.0000,0.1643
2025-12-30,33.2000,35.0000,31.2900,32.7200,113349.0000,0.3684
2025-12-31,32.7200,33.0900,31.5000,31.7000,34302.0000,0.4196
2026-01-01,33.0000,33.0000,31.5000,31.8100,18253.0000,0.2455
2026-01-04,31.7000,33.3000,31.4000,31.6100,21020.0000,0.2615
2026-01-05,33.2500,33.2500,31.1000,31.3100,7569.0000,0.3264
2026-01-06,31.3000,31.9800,30.9000,30.9100,17731.0000,0.1120
2026-01-07,32.0100,32.0100,30.8000,30.8000,19855.0000,0.2932
2026-01-08,32.3200,32.3200,30.9000,30.9100,22220.0000,0.2269
2026-01-11,30.9100,31.5000,29.2000,30.5000,15151.0000,0.2965
2026-01-12,30.6300,31.8700,30.5000,30.5000,21838.0000,0.1719
2026-01-13,32.9800,32.9800,30.4700,30.5400,33342.0000,0.6343
2026-01-15,31.1500,31.2000,29.2500,30.6300,8907.0000,0.4562
2026-01-18,30.6900,35.5000,30.1800,34.1800,299482.0000,0.5075
2026-01-19,34.2900,34.9900,30.3000,30.5200,99526.0000,0.5735
2026-01-20,29.2000,31.8000,29.2000,30.5200,38103.0000,0.3991
2026-01-21,33.5000,33.5000,30.5100,30.8600,12101.0000,0.1522
2026-01-22,30.8600,32.0000,30.5000,30.5600,23844.0000,0.4223
2026-01-26,30.5600,31.5400,30.5000,30.6700,37275.0000,0.4521
2026-01-27,30.5100,31.5000,30.5100,30.7600,18822.0000,0.5473
2026-01-28,29.4000,32.0500,29.4000,31.3400,84754.0000,0.3590
2026-01-29,31.9000,31.9000,30.0000,30.5900,107170.0000,0.1765
2026-02-01,29.4500,31.5800,29.4500,30.2000,46316.0000,0.2703
2026-02-02,29.2500,31.4900,29.2500,30.5000,27970.0000,0.3178
2026-02-03,31.2600,31.4400,30.2500,30.7000,106181.0000,0.4876
2026-02-04,30.1500,31.1400,30.1000,30.5000,46235.0000,0.4425
2026-02-05,30.4900,31.0000,29.5000,30.5400,20538.0000,0.3137
2026-02-08,30.5400,31.6000,29.7800,31.2600,19365.0000,0.6919
2026-02-09,31.5100,31.5100,30.7100,31.0200,18312.0000,0.4635
2026-02-10,30.5500,31.3000,30.5000,30.6300,45923.0000,0.2423
2026-02-11,31.4800,31.4800,30.4100,31.0100,25587.0000,0.1611
2026-02-12,31.3900,31.3900,30.1600,30.6300,27803.0000,0.1917
2026-02-15,31.5000,31.5000,29.6500,31.1200,64012.0000,0.2476
2026-02-16,31.5100,31.9900,30.8000,31.0400,31933.0000,0.1964
2026-02-17,30.2600,31.3500,30.2600,31.0300,23347.0000,0.2119
2026-02-18,30.3000,31.2400,30.3000,30.5800,30880.0000,0.2711
2026-02-19,30.7000,31.2800,30.6100,31.0700,318708.0000,0.2040
2026-02-22,31.1900,32.4800,30.7000,31.7800,283684.0000,0.6381
2026-02-23,32.4500,34.9000,31.5000,34.5000,300634.0000,0.1481
2026-02-24,36.7000,40.3800,35.5000,37.1600,747491.0000,0.4147
2026-02-25,37.5000,39.0000,35.2000,38.4800,193002.0000,0.3462
2026-02-26,38.5000,40.3500,34.0500,35.5400,270807.0000,0.6894
2026-03-01,35.5000,35.5000,32.2500,32.9500,129760.0000,0.1672
2026-03-03,32.1000,35.3500,32.1000,33.8700,57382.0000,0.3387
2026-03-04,34.7900,35.3200,32.3200,34.3200,51213.0000,0.6817
2026-03-05,35.3400,38.4800,34.9800,35.8800,227477.0000,0.6193
2026-03-08,35.8700,35.8700,33.7500,34.5600,38380.0000,0.5902
2026-03-09,36.8000,41.4700,35.0300,38.8500,418410.0000,0.2547
2026-03-10,38.8500,42.0000,36.7600,39.4100,428693.0000,0.2025
2026-03-11,39.8000,39.8000,35.1000,36.1800,504491.0000,0.5012
2026-03-12,36.1800,39.0000,35.6000,36.7600,130190.0000,0.6576
2026-03-15,35.7200,36.5300,34.2000,35.2300,207771.0000,0.4341
2026-03-16,35.2600,36.1000,34.1100,34.3300,85843.0000,0.4430
2026-03-17,34.8400,35.0000,34.0000,34.2600,59459.0000,0.2680
2026-03-18,33.9000,34.7700,33.5000,33.5700,83212.0000,0.5617
2026-03-19,33.3100,34.0000,32.9100,32.9800,61193.0000,0.2122
2026-03-22,32.9000,33.9000,29.1000,30.0100,347825.0000,0.2942
2026-03-23,29.8000,31.5400,29.8000,31.1900,115420.0000,0.3553
2026-03-24,30.8000,31.9500,30.8000,31.0200,66919.0000,0.4046
2026-03-26,31.0200,31.7800,30.4000,30.4600,76320.0000,0.2454
2026-03-29,30.9000,32.0000,28.5600,29.7500,97814.0000,0.1689
2026-03-31,30.2500,31.7900,30.0000,30.2300,99485.0000,0.4664
2026-04-01,30.2400,30.5100,29.8000,30.1600,56852.0000,0.2732
2026-04-05,30.0000,30.7000,30.0000,30.3300,47909.0000,0.4487
2026-04-06,30.3300,30.5000,30.0000,30.2500,28681.0000,0.1926
2026-04-07,31.2000,31.4900,30.3000,30.4000,101867.0000,0.3887
2026-04-08,30.0600,30.9300,30.0600,30.7200,16407.0000,0.4196
2026-04-09,31.4100,33.8500,30.5700,33.4900,204306.0000,0.1311
2026-04-12,33.0100,34.8300,32.5800,34.0400,69462.0000,0.3020
2026-04-14,35.0500,35.8500,34.0600,35.0400,65903.0000,0.1806
2026-04-15,35.9400,35.9400,34.3000,35.0600,35054.0000,0.1380
2026-04-16,34.4000,36.4500,34.4000,36.0500,82085.0000,0.6940
2026-04-19,34.4000,35.9900,33.2000,33.3900,65288.0000,0.2934
2026-04-20,33.0000,34.1800,33.0000,33.0100,16328.0000,0.5859
2026-04-21,33.0100,34.4900,33.0000,33.4700,38074.0000,0.2528
2026-04-22,33.6800,33.7800,32.6000,32.7900,27930.0000,0.5089
2026-04-23,32.1100,33.5400,32.1100,32.6000,11285.0000,0.5561
2026-04-26,32.6000,32.9600,31.2000,31.8900,30552.0000,0.4574
2026-04-27,32.0900,32.1500,31.5000,31.5300,14862.0000,0.3829
2026-04-28,31.5200,33.7000,31.5200,32.1200,25471.0000,0.3471
2026-04-29,31.3100,32.9400,31.3100,32.3200,21140.0000,0.3093
2026-05-03,32.3400,33.1700,31.5700,32.0500,19490.0000,0.6577
2026-05-04,32.0700,34.4000,31.9000,32.4000,100401.0000,0.5984
2026-05-05,32.4000,32.9600,31.9000,32.1100,23224.0000,0.6790
2026-05-06,32.0000,32.6800,31.9000,32.2300,17411.0000,0.1746
2026-05-07,32.0000,32.4000,31.3500,32.1000,63901.0000,0.5385
2026-05-10,31.5100,32.5000,31.5100,31.9800,9654.0000,0.6630
2026-05-11,31.9900,33.0000,30.0100,30.6300,38235.0000,0.2087
2026-05-12,30.3200,31.2000,30.2000,30.4200,31845.0000,0.1399
2026-05-13,30.0800,31.4700,30.0800,30.9200,13865.0000,0.5447
2026-05-14,30.7700,31.2500,28.1000,29.1200,102209.0000,0.4447
2026-05-17,29.9000,31.2000,28.3000,30.2800,60596.0000,0.6051
2026-05-18,30.2500,31.2900,29.6200,29.8000,19237.0000,0.1839
2026-05-19,30.0000,30.2000,29.6000,29.7100,11382.0000,0.5772
2026-05-20,30.0000,30.4000,28.9900,29.3700,28687.0000,0.2210
2026-05-21,29.0000,29.7300,28.5000,28.9800,27838.0000,0.1982
2026-05-24,29.2900,29.9900,28.1000,28.8100,25382.0000,0.1986
2026-05-25,28.8100,29.3500,28.3900,28.9900,14224.0000,0.5887
2026-05-26,28.9900,31.3400,28.9900,29.6900,47255.0000,0.4991
2026-05-27,29.6900,29.6900,29.6900,29.6900,0.0000,0.4138
2026-05-28,29.8300,30.5200,29.0300,29.6800,23793.0000,0.3153
2026-05-31,29.6800,30.3900,29.2000,29.2100,10996.0000,0.6263
2026-06-01,29.7500,29.9800,29.4000,29.4900,16875.0000,0.3355
2026-06-02,29.5500,29.8000,28.9700,29.0500,28810.0000,0.5900
2026-06-03,29.0000,29.9400,28.8000,29.3200,15772.0000,0.3635
