Date,Log_Return_pct,GARCH_Vol_Forecast,GARCH_Omega,GARCH_Alpha,GARCH_Beta,GARCH_Vol_Surprise,GARCH_Surprise_Score,GARCH_HighVol_Flag
2023-06-19,,,,,,,,0
2023-06-20,0.0000,,,,,,,0
2023-06-21,-1.1257,,,,,,,0
2023-06-22,-1.1385,,,,,,,0
2023-06-25,1.1385,,,,,,,0
2023-06-26,-0.7576,,,,,,,0
2023-06-27,-0.7634,,,,,,,0
2023-06-29,1.1429,,,,,,,0
2023-07-02,1.5038,,,,,,,0
2023-07-03,-1.5038,,,,,,,0
2023-07-04,0.0000,,,,,,,0
2023-07-05,0.3781,,,,,,,0
2023-07-06,-2.6770,,,,,,,0
2023-07-09,-0.7782,,,,,,,0
2023-07-10,0.0000,,,,,,,0
2023-07-11,-0.7843,,,,,,,0
2023-07-12,0.0000,,,,,,,0
2023-07-13,-0.3945,,,,,,,0
2023-07-16,0.7874,,,,,,,0
2023-07-17,-1.1834,,,,,,,0
2023-07-18,0.3960,,,,,,,0
2023-07-19,-0.7937,,,,,,,0
2023-07-20,-0.3992,,,,,,,0
2023-07-23,-1.6129,,,,,,,0
2023-07-24,1.2121,,,,,,,0
2023-07-25,0.4008,,,,,,,0
2023-07-26,-0.8032,,,,,,,0
2023-07-27,-0.4040,,,,,,,0
2023-07-30,0.0000,,,,,,,0
2023-07-31,0.8065,,,,,,,0
2023-08-01,-2.0285,,,,,,,0
2023-08-02,0.4090,,,,,,,0
2023-08-03,0.4073,,,,,,,0
2023-08-06,-1.2270,,,,,,,0
2023-08-07,0.8197,,,,,,,0
2023-08-08,-0.4090,,,,,,,0
2023-08-09,-0.4107,,,,,,,0
2023-08-10,5.9898,,,,,,,0
2023-08-13,-1.1696,,,,,,,0
2023-08-15,5.7158,,,,,,,0
2023-08-16,-1.1173,,,,,,,0
2023-08-17,-2.2728,,,,,,,0
2023-08-20,0.3824,,,,,,,0
2023-08-21,-0.3824,,,,,,,0
2023-08-22,1.5209,,,,,,,0
2023-08-23,0.3766,,,,,,,0
2023-08-24,1.1215,,,,,,,0
2023-08-27,-1.8762,,,,,,,0
2023-08-28,-0.7605,,,,,,,0
2023-08-29,0.0000,,,,,,,0
2023-08-30,-1.1516,,,,,,,0
2023-08-31,0.7692,,,,,,,0
2023-09-03,1.5209,,,,,,,0
2023-09-04,18.2322,,,,,,,0
2023-09-05,5.2079,,,,,,,0
2023-09-06,1.4815,,,,,,,0
2023-09-07,-4.5120,,,,,,,0
2023-09-10,-0.6173,,,,,,,0
2023-09-11,-7.7209,,,,,,,0
2023-09-12,4.5760,,,,,,,0
2023-09-13,-0.6410,,,,,,,0
2023-09-14,4.0951,3.7929,0.1938,0.0000,1.0000,1.0797,83.3333,0
2023-09-17,-2.8171,3.7929,0.1938,0.0000,1.0000,0.7427,73.8938,0
2023-09-19,-3.5545,3.7929,0.1938,0.0000,1.0000,0.9372,80.5310,0
2023-09-20,0.0000,3.7929,0.1938,0.0000,1.0000,0.0000,1.3274,0
2023-09-21,-0.9917,3.7929,0.1938,0.0000,1.0000,0.2615,29.6460,0
2023-09-24,2.2990,3.7929,0.1938,0.0000,1.0000,0.6061,63.4218,0
2023-09-25,-1.9673,3.7929,0.1938,0.0000,1.0000,0.5187,56.0472,0
2023-09-26,-0.6645,3.7929,0.1938,0.0000,1.0000,0.1752,19.9115,0
2023-09-27,-1.3423,3.7929,0.1938,0.0000,1.0000,0.3539,38.9381,0
2023-09-28,-0.6780,3.7929,0.1938,0.0000,1.0000,0.1787,20.3540,0
2023-10-02,1.0152,3.7929,0.1938,0.0000,1.0000,0.2677,30.2360,0
2023-10-03,0.6711,3.7929,0.1938,0.0000,1.0000,0.1769,20.0590,0
2023-10-04,-1.6864,3.7929,0.1938,0.0000,1.0000,0.4446,48.0826,0
2023-10-05,2.3530,3.7929,0.1938,0.0000,1.0000,0.6204,65.4867,0
2023-10-08,-2.3530,3.7929,0.1938,0.0000,1.0000,0.6204,65.3392,0
2023-10-09,-0.6826,3.7929,0.1938,0.0000,1.0000,0.1800,20.5015,0
2023-10-10,10.0899,3.7929,0.1938,0.0000,1.0000,2.6602,97.3451,0
2023-10-11,-1.5601,3.7929,0.1938,0.0000,1.0000,0.4113,43.5103,0
2023-10-12,-2.2258,3.7929,0.1938,0.0000,1.0000,0.5869,62.5369,0
2023-10-15,-0.9693,3.7929,0.1938,0.0000,1.0000,0.2556,29.3510,0
2023-10-16,-0.3252,3.9442,0.1599,0.0000,1.0000,0.0825,10.3245,0
2023-10-17,-1.6421,3.9442,0.1599,0.0000,1.0000,0.4163,43.8053,0
2023-10-18,-0.9983,3.9442,0.1599,0.0000,1.0000,0.2531,28.7611,0
2023-10-19,0.3339,3.9442,0.1599,0.0000,1.0000,0.0847,10.6195,0
2023-10-22,-8.3382,3.9442,0.1599,0.0000,1.0000,2.1140,96.0177,0
2023-10-24,1.7954,3.9442,0.1599,0.0000,1.0000,0.4552,49.7050,0
2023-10-25,-3.9933,3.9442,0.1599,0.0000,1.0000,1.0124,82.3009,0
2023-10-26,1.4706,3.9442,0.1599,0.0000,1.0000,0.3729,40.1180,0
2023-10-29,0.3643,3.9442,0.1599,0.0000,1.0000,0.0924,11.7994,0
2023-10-30,0.3630,3.9442,0.1599,0.0000,1.0000,0.0920,11.6519,0
2023-10-31,0.0000,3.9442,0.1599,0.0000,1.0000,0.0000,1.3274,0
2023-11-01,0.7220,3.9442,0.1599,0.0000,1.0000,0.1831,21.2389,0
2023-11-02,1.0734,3.9442,0.1599,0.0000,1.0000,0.2721,30.3835,0
2023-11-05,3.1526,3.9442,0.1599,0.0000,1.0000,0.7993,75.0737,0
2023-11-06,-0.3454,3.9442,0.1599,0.0000,1.0000,0.0876,10.9145,0
2023-11-07,2.3933,3.9442,0.1599,0.0000,1.0000,0.6068,63.6431,0
2023-11-08,-2.3933,3.9442,0.1599,0.0000,1.0000,0.6068,63.6431,0
2023-11-09,7.9777,3.9442,0.1599,0.0000,1.0000,2.0226,95.7227,0
2023-11-12,-1.2862,3.9442,0.1599,0.0000,1.0000,0.3261,36.2832,0
2023-11-14,-0.6494,3.9442,0.1599,0.0000,1.0000,0.1646,18.5841,0
2023-11-15,-0.9820,4.0548,0.1370,0.0000,1.0000,0.2422,27.4336,0
2023-11-16,1.9545,4.0548,0.1370,0.0000,1.0000,0.4820,52.6549,0
2023-11-19,8.9428,4.0548,0.1370,0.0000,1.0000,2.2055,96.3127,0
2023-11-20,5.7322,4.0548,0.1370,0.0000,1.0000,1.4137,91.0029,0
2023-11-21,-7.2181,4.0548,0.1370,0.0000,1.0000,1.7802,94.6903,0
2023-11-22,0.0000,4.0548,0.1370,0.0000,1.0000,0.0000,1.3274,0
2023-11-23,2.0741,4.0548,0.1370,0.0000,1.0000,0.5115,55.0147,0
2023-11-27,-1.7752,4.0548,0.1370,0.0000,1.0000,0.4378,46.1652,0
2023-11-28,-1.2012,4.0548,0.1370,0.0000,1.0000,0.2962,31.9322,0
2023-11-29,-3.6927,4.0548,0.1370,0.0000,1.0000,0.9107,79.4985,0
2023-11-30,1.2461,4.0548,0.1370,0.0000,1.0000,0.3073,33.4808,0
2023-12-03,0.0000,4.0548,0.1370,0.0000,1.0000,0.0000,1.3274,0
2023-12-04,-0.6211,4.0548,0.1370,0.0000,1.0000,0.1532,17.4041,0
2023-12-05,5.7504,4.0548,0.1370,0.0000,1.0000,1.4182,91.1504,0
2023-12-06,0.5865,4.0548,0.1370,0.0000,1.0000,0.1446,16.5192,0
2023-12-07,-2.0680,4.0548,0.1370,0.0000,1.0000,0.5100,54.8673,0
2023-12-10,-1.2012,4.0548,0.1370,0.0000,1.0000,0.2962,31.9322,0
2023-12-11,-0.6061,4.0548,0.1370,0.0000,1.0000,0.1495,16.8142,0
2023-12-12,-0.3044,4.0548,0.1370,0.0000,1.0000,0.0751,9.7345,0
2023-12-13,-0.3053,4.0548,0.1370,0.0000,1.0000,0.0753,9.8820,0
2023-12-14,-0.9217,3.9288,0.1730,0.0000,0.9932,0.2346,26.5487,0
2023-12-17,15.4151,3.9288,0.1730,0.0000,0.9932,3.9236,99.4100,0
2023-12-18,0.2642,3.9288,0.1730,0.0000,0.9932,0.0672,8.5546,0
2023-12-19,-4.3133,3.9288,0.1730,0.0000,0.9932,1.0979,83.6283,0
2023-12-20,4.3133,3.9288,0.1730,0.0000,0.9932,1.0979,83.4808,0
2023-12-21,-3.2174,3.9288,0.1730,0.0000,0.9932,0.8189,76.1062,0
2023-12-25,-0.8208,3.9288,0.1730,0.0000,0.9932,0.2089,24.1888,0
2023-12-26,-3.9221,3.9288,0.1730,0.0000,0.9932,0.9983,81.8584,0
2023-12-27,-4.9791,3.9288,0.1730,0.0000,0.9932,1.2673,87.9056,0
2023-12-28,4.9791,3.9288,0.1730,0.0000,0.9932,1.2673,88.0531,0
2023-12-31,4.4700,3.9288,0.1730,0.0000,0.9932,1.1378,85.1032,0
2024-01-01,10.1254,3.9288,0.1730,0.0000,0.9932,2.5772,97.1976,0
2024-01-02,-1.9951,3.9288,0.1730,0.0000,0.9932,0.5078,54.5723,0
2024-01-03,-1.5229,3.9288,0.1730,0.0000,0.9932,0.3876,41.4454,0
2024-01-04,-1.5464,3.9288,0.1730,0.0000,0.9932,0.3936,41.7404,0
2024-01-07,2.0566,3.9288,0.1730,0.0000,0.9932,0.5235,56.6372,0
2024-01-08,3.5004,3.9288,0.1730,0.0000,0.9932,0.8910,78.6136,0
2024-01-09,-1.9852,3.9288,0.1730,0.0000,0.9932,0.5053,54.2773,0
2024-01-10,-1.2611,3.9288,0.1730,0.0000,0.9932,0.3210,35.6932,0
2024-01-11,-1.7926,3.9288,0.1730,0.0000,0.9932,0.4563,50.4425,0
2024-01-14,3.0537,4.6379,0.1338,0.0000,1.0000,0.6584,71.0914,1
2024-01-15,-2.0254,4.6379,0.1338,0.0000,1.0000,0.4367,45.7227,1
2024-01-16,-2.0673,4.6379,0.1338,0.0000,1.0000,0.4457,48.2301,1
2024-01-17,0.2608,4.6379,0.1338,0.0000,1.0000,0.0562,6.9322,1
2024-01-18,2.8243,4.6379,0.1338,0.0000,1.0000,0.6090,64.1593,1
2024-01-22,-7.8988,4.6379,0.1338,0.0000,1.0000,1.7031,93.9528,1
2024-01-23,-1.9364,4.6379,0.1338,0.0000,1.0000,0.4175,43.9528,1
2024-01-24,3.5669,4.6379,0.1338,0.0000,1.0000,0.7691,74.7788,1
2024-01-28,0.0000,4.6379,0.1338,0.0000,1.0000,0.0000,1.3274,1
2024-01-29,3.9635,4.6379,0.1338,0.0000,1.0000,0.8546,77.1386,1
2024-01-30,-1.8301,4.6379,0.1338,0.0000,1.0000,0.3946,42.0354,1
2024-01-31,-1.5958,4.6379,0.1338,0.0000,1.0000,0.3441,37.3156,1
2024-02-01,-0.8075,4.6379,0.1338,0.0000,1.0000,0.1741,19.6165,1
2024-02-04,-1.9100,4.6379,0.1338,0.0000,1.0000,0.4118,43.6578,1
2024-02-05,18.0943,4.6379,0.1338,0.0000,1.0000,3.9014,99.2625,1
2024-02-06,5.8052,4.6379,0.1338,0.0000,1.0000,1.2517,87.1681,1
2024-02-07,1.2931,4.6379,0.1338,0.0000,1.0000,0.2788,30.9735,1
2024-02-08,-6.1830,4.6379,0.1338,0.0000,1.0000,1.3331,89.0855,1
2024-02-11,-11.0690,4.6379,0.1338,0.0000,1.0000,2.3866,96.7552,1
2024-02-12,-2.0566,4.6379,0.1338,0.0000,1.0000,0.4434,47.7876,1
2024-02-13,5.0644,5.0891,0.1445,0.0000,1.0000,0.9951,81.5634,1
2024-02-14,2.1979,5.0891,0.1445,0.0000,1.0000,0.4319,44.6903,1
2024-02-15,2.6223,5.0891,0.1445,0.0000,1.0000,0.5153,55.3097,1
2024-02-18,-2.6223,5.0891,0.1445,0.0000,1.0000,0.5153,55.1622,1
2024-02-19,-2.6929,5.0891,0.1445,0.0000,1.0000,0.5292,57.3746,1
2024-02-20,-2.2586,5.0891,0.1445,0.0000,1.0000,0.4438,47.9351,1
2024-02-21,3.2462,5.0891,0.1445,0.0000,1.0000,0.6379,68.1416,1
2024-02-22,-2.2361,5.0891,0.1445,0.0000,1.0000,0.4394,46.7552,1
2024-02-25,-3.5809,5.0891,0.1445,0.0000,1.0000,0.7037,72.5664,1
2024-02-26,-1.5748,5.0891,0.1445,0.0000,1.0000,0.3095,34.2183,1
2024-02-27,-3.2261,5.0891,0.1445,0.0000,1.0000,0.6339,67.1091,1
2024-02-28,0.2729,5.0891,0.1445,0.0000,1.0000,0.0536,6.4897,1
2024-02-29,4.2673,5.0891,0.1445,0.0000,1.0000,0.8385,76.5487,1
2024-03-03,2.3227,5.0891,0.1445,0.0000,1.0000,0.4564,50.5900,1
2024-03-04,-1.0257,5.0891,0.1445,0.0000,1.0000,0.2015,23.3038,1
2024-03-05,-2.8760,5.0891,0.1445,0.0000,1.0000,0.5651,60.3245,1
2024-03-06,-0.5319,5.0891,0.1445,0.0000,1.0000,0.1045,12.3894,1
2024-03-10,-2.9772,5.0891,0.1445,0.0000,1.0000,0.5850,62.3894,1
2024-03-11,-7.7071,5.0891,0.1445,0.0000,1.0000,1.5144,92.1829,1
2024-03-12,-8.9983,5.0891,0.1445,0.0000,1.0000,1.7682,94.5428,1
2024-03-13,2.2473,5.1327,0.1404,0.0000,0.9994,0.4378,46.4602,1
2024-03-14,0.9479,5.1327,0.1404,0.0000,0.9994,0.1847,21.3864,1
2024-03-17,0.3140,5.1327,0.1404,0.0000,0.9994,0.0612,7.8171,1
2024-03-18,-3.8343,5.1327,0.1404,0.0000,0.9994,0.7470,74.0413,1
2024-03-19,-2.9754,5.1327,0.1404,0.0000,0.9994,0.5797,61.7994,1
2024-03-20,7.4348,5.1327,0.1404,0.0000,0.9994,1.4485,91.4454,1
2024-03-21,-1.8868,5.1327,0.1404,0.0000,0.9994,0.3676,39.9705,1
2024-03-25,-1.6000,5.1327,0.1404,0.0000,0.9994,0.3117,34.6608,1
2024-03-26,-4.6213,5.1327,0.1404,0.0000,0.9994,0.9004,78.9086,1
2024-03-27,-1.0187,5.1327,0.1404,0.0000,0.9994,0.1985,23.0088,1
2024-03-31,9.4379,5.1327,0.1404,0.0000,0.9994,1.8388,95.1327,1
2024-04-01,3.0583,5.1327,0.1404,0.0000,0.9994,0.5959,62.9794,1
2024-04-02,4.1304,5.1327,0.1404,0.0000,0.9994,0.8047,75.3687,1
2024-04-03,12.2269,5.1327,0.1404,0.0000,0.9994,2.3822,96.6077,1
2024-04-04,6.4379,5.1327,0.1404,0.0000,0.9994,1.2543,87.3156,1
2024-04-07,-5.4200,5.1327,0.1404,0.0000,0.9994,1.0560,83.1858,1
2024-04-08,-1.2739,5.1327,0.1404,0.0000,0.9994,0.2482,28.3186,1
2024-04-09,-0.7722,5.1327,0.1404,0.0000,0.9994,0.1504,17.1091,1
2024-04-11,-2.3530,5.1327,0.1404,0.0000,0.9994,0.4584,50.7375,1
2024-04-14,1.0526,5.1327,0.1404,0.0000,0.9994,0.2051,23.7463,1
2024-04-15,9.4834,5.1729,0.1492,0.0000,0.9981,1.8333,94.9853,1
2024-04-17,5.3315,5.1729,0.1492,0.0000,0.9981,1.0307,82.7434,1
2024-04-18,-0.2260,5.1729,0.1492,0.0000,0.9981,0.0437,5.0147,1
2024-04-21,1.5713,5.1729,0.1492,0.0000,0.9981,0.3038,32.7434,1
2024-04-22,-1.7978,5.1729,0.1492,0.0000,0.9981,0.3475,37.9056,1
2024-04-23,-0.2270,5.1729,0.1492,0.0000,0.9981,0.0439,5.3097,1
2024-04-24,-2.9991,5.1729,0.1492,0.0000,0.9981,0.5798,61.9469,1
2024-04-25,1.1642,5.1729,0.1492,0.0000,0.9981,0.2250,25.9587,1
2024-04-28,0.4619,5.1729,0.1492,0.0000,0.9981,0.0893,11.2094,1
2024-04-29,1.6000,5.1729,0.1492,0.0000,0.9981,0.3093,34.0708,1
2024-05-01,3.7824,5.1729,0.1492,0.0000,0.9981,0.7312,73.3038,1
2024-05-02,-1.3187,5.1729,0.1492,0.0000,0.9981,0.2549,29.2035,1
2024-05-05,-0.6659,5.1729,0.1492,0.0000,0.9981,0.1287,15.6342,1
2024-05-06,-1.5713,5.1729,0.1492,0.0000,0.9981,0.3038,32.5959,1
2024-05-07,-0.2265,5.1729,0.1492,0.0000,0.9981,0.0438,5.1622,1
2024-05-08,-5.8360,5.1729,0.1492,0.0000,0.9981,1.1282,84.6608,1
2024-05-09,-0.9662,5.1729,0.1492,0.0000,0.9981,0.1868,21.8289,1
2024-05-12,-1.9608,5.1729,0.1492,0.0000,0.9981,0.3791,40.8555,1
2024-05-13,6.4693,5.1729,0.1492,0.0000,0.9981,1.2506,87.0206,1
2024-05-14,-0.2323,5.1729,0.1492,0.0000,0.9981,0.0449,5.4572,1
2024-05-15,-2.1152,4.7749,0.1879,0.0000,0.9936,0.4430,47.6401,1
2024-05-16,1.8824,4.7749,0.1879,0.0000,0.9936,0.3942,41.8879,1
2024-05-20,-0.9368,4.7749,0.1879,0.0000,0.9936,0.1962,22.5664,1
2024-05-21,-1.1834,4.7749,0.1879,0.0000,0.9936,0.2478,28.0236,1
2024-05-22,-1.4389,4.7749,0.1879,0.0000,0.9936,0.3013,32.4484,1
2024-05-23,-0.7273,4.7749,0.1879,0.0000,0.9936,0.1523,17.2566,1
2024-05-26,-1.4706,4.7749,0.1879,0.0000,0.9936,0.3080,33.6283,1
2024-05-27,-1.7435,4.7749,0.1879,0.0000,0.9936,0.3651,39.5280,1
2024-05-28,3.9414,4.7749,0.1879,0.0000,0.9936,0.8254,76.2537,1
2024-05-29,-2.9414,4.7749,0.1879,0.0000,0.9936,0.6160,64.7493,1
2024-05-30,-2.0101,4.7749,0.1879,0.0000,0.9936,0.4210,44.1003,1
2024-06-02,0.5063,4.7749,0.1879,0.0000,0.9936,0.1060,12.8319,1
2024-06-03,-7.6052,4.7749,0.1879,0.0000,0.9936,1.5928,93.2153,1
2024-06-04,-0.2729,4.7749,0.1879,0.0000,0.9936,0.0571,7.0796,1
2024-06-05,6.6074,4.7749,0.1879,0.0000,0.9936,1.3838,90.7080,1
2024-06-06,2.2757,4.7749,0.1879,0.0000,0.9936,0.4766,52.2124,1
2024-06-09,1.0445,4.7749,0.1879,0.0000,0.9936,0.2188,25.6637,1
2024-06-10,0.0000,4.7749,0.1879,0.0000,0.9936,0.0000,1.3274,1
2024-06-11,-1.1946,4.7749,0.1879,0.0000,0.9936,0.2502,28.4661,1
2024-06-12,-0.3009,4.7749,0.1879,0.0000,0.9936,0.0630,7.9646,1
2024-06-13,0.5510,4.4059,0.2292,0.0000,0.9889,0.1251,15.3392,1
2024-06-17,-1.9673,4.4059,0.2292,0.0000,0.9889,0.4465,48.3776,1
2024-06-18,-2.3191,4.4059,0.2292,0.0000,0.9889,0.5264,57.0796,1
2024-06-19,-0.4703,4.4059,0.2292,0.0000,0.9889,0.1068,13.1268,1
2024-06-20,1.9196,4.4059,0.2292,0.0000,0.9889,0.4357,45.2802,1
2024-06-23,0.0000,4.4059,0.2292,0.0000,0.9889,0.0000,1.3274,1
2024-06-24,-0.7220,4.4059,0.2292,0.0000,0.9889,0.1639,18.4366,1
2024-06-25,1.0811,4.4059,0.2292,0.0000,0.9889,0.2454,27.7286,1
2024-06-26,0.2046,4.4059,0.2292,0.0000,0.9889,0.0464,5.7522,1
2024-06-27,0.2042,4.4059,0.2292,0.0000,0.9889,0.0463,5.6047,1
2024-06-30,4.4385,4.4059,0.2292,0.0000,0.9889,1.0074,82.1534,1
2024-07-01,3.1688,4.4059,0.2292,0.0000,0.9889,0.7192,73.0088,1
2024-07-02,-1.0929,4.4059,0.2292,0.0000,0.9889,0.2481,28.1711,1
2024-07-03,-3.1548,4.4059,0.2292,0.0000,0.9889,0.7160,72.8614,1
2024-07-04,3.5839,4.4059,0.2292,0.0000,0.9889,0.8134,75.6637,1
2024-07-07,0.0000,4.4059,0.2292,0.0000,0.9889,0.0000,1.3274,1
2024-07-08,-0.2382,4.4059,0.2292,0.0000,0.9889,0.0541,6.6372,1
2024-07-09,-1.6831,4.4059,0.2292,0.0000,0.9889,0.3820,41.1504,1
2024-07-10,-1.3672,4.4059,0.2292,0.0000,0.9889,0.3103,34.5133,1
2024-07-11,3.6684,4.4059,0.2292,0.0000,0.9889,0.8326,76.4012,1
2024-07-14,-1.7691,4.0935,0.2686,0.0000,0.9842,0.4322,44.8378,0
2024-07-15,-2.2440,4.0935,0.2686,0.0000,0.9842,0.5482,58.4071,0
2024-07-17,0.9818,4.0935,0.2686,0.0000,0.9842,0.2399,27.2861,0
2024-07-18,-1.9734,4.0935,0.2686,0.0000,0.9842,0.4821,52.8024,0
2024-07-21,-1.1526,4.0935,0.2686,0.0000,0.9842,0.2816,31.2684,0
2024-07-22,-0.4547,4.0935,0.2686,0.0000,0.9842,0.1111,13.5693,0
2024-07-23,8.9540,4.0935,0.2686,0.0000,0.9842,2.1874,96.1652,0
2024-07-24,0.6461,4.0935,0.2686,0.0000,0.9842,0.1578,17.9941,0
2024-07-25,-2.2797,4.0935,0.2686,0.0000,0.9842,0.5569,59.7345,0
2024-07-28,-1.3741,4.0935,0.2686,0.0000,0.9842,0.3357,36.8732,0
2024-07-29,0.8078,4.0935,0.2686,0.0000,0.9842,0.1973,22.8614,0
2024-07-30,-1.4300,4.0935,0.2686,0.0000,0.9842,0.3493,38.4956,0
2024-07-31,-1.7922,4.0935,0.2686,0.0000,0.9842,0.4378,46.3127,0
2024-08-01,1.5038,4.0935,0.2686,0.0000,0.9842,0.3674,39.8230,0
2024-08-04,-4.5306,4.0935,0.2686,0.0000,0.9842,1.1068,83.9233,0
2024-08-05,-2.2931,4.0935,0.2686,0.0000,0.9842,0.5602,59.8820,0
2024-08-06,4.5348,4.0935,0.2686,0.0000,0.9842,1.1078,84.2183,0
2024-08-07,-0.8907,4.0935,0.2686,0.0000,0.9842,0.2176,25.3687,0
2024-08-08,8.1571,4.0935,0.2686,0.0000,0.9842,1.9927,95.5752,0
2024-08-11,-2.0829,4.0935,0.2686,0.0000,0.9842,0.5088,54.7198,0
2024-08-12,-5.1343,4.0068,0.2806,0.0000,0.9826,1.2814,88.4956,0
2024-08-13,-1.8386,4.0068,0.2806,0.0000,0.9826,0.4589,50.8850,0
2024-08-15,0.8489,4.0068,0.2806,0.0000,0.9826,0.2119,24.6313,0
2024-08-18,10.7397,4.0068,0.2806,0.0000,0.9826,2.6804,97.4926,0
2024-08-19,4.9662,4.0068,0.2806,0.0000,0.9826,1.2395,86.5782,0
2024-08-20,-2.1044,4.0068,0.2806,0.0000,0.9826,0.5252,56.9322,0
2024-08-21,-1.8840,4.0068,0.2806,0.0000,0.9826,0.4702,51.9174,0
2024-08-22,-1.6050,4.0068,0.2806,0.0000,0.9826,0.4006,42.7729,0
2024-08-25,1.7376,4.0068,0.2806,0.0000,0.9826,0.4337,44.9853,0
2024-08-26,-5.0271,4.0068,0.2806,0.0000,0.9826,1.2547,87.4631,0
2024-08-27,-2.5878,4.0068,0.2806,0.0000,0.9826,0.6459,70.7965,0
2024-08-28,-1.1988,4.0068,0.2806,0.0000,0.9826,0.2992,32.1534,0
2024-08-29,1.1988,4.0068,0.2806,0.0000,0.9826,0.2992,32.3009,0
2024-09-01,5.3816,4.0068,0.2806,0.0000,0.9826,1.3431,89.3805,0
2024-09-02,1.9679,4.0068,0.2806,0.0000,0.9826,0.4911,53.5398,0
2024-09-03,-2.5568,4.0068,0.2806,0.0000,0.9826,0.6381,68.2891,0
2024-09-04,-0.1364,4.0068,0.2806,0.0000,0.9826,0.0340,4.1298,0
2024-09-05,-0.0455,4.0068,0.2806,0.0000,0.9826,0.0114,2.9499,0
2024-09-08,-0.8227,4.0068,0.2806,0.0000,0.9826,0.2053,23.8938,0
2024-09-09,0.7316,4.0068,0.2806,0.0000,0.9826,0.1826,21.0914,0
2024-09-10,0.3638,3.9624,0.2873,0.0000,0.9818,0.0918,11.5044,0
2024-09-11,-2.1565,3.9624,0.2873,0.0000,0.9818,0.5442,57.8171,0
2024-09-12,1.8383,3.9624,0.2873,0.0000,0.9818,0.4639,51.3274,0
2024-09-15,-0.5937,3.9624,0.2873,0.0000,0.9818,0.1498,16.9617,0
2024-09-16,-0.2293,3.9624,0.2873,0.0000,0.9818,0.0579,7.3746,0
2024-09-17,-2.9352,3.9624,0.2873,0.0000,0.9818,0.7408,73.7463,0
2024-09-18,-2.9753,3.9624,0.2873,0.0000,0.9818,0.7509,74.1888,0
2024-09-19,2.6912,3.9624,0.2873,0.0000,0.9818,0.6792,72.2714,0
2024-09-22,-0.8571,3.9624,0.2873,0.0000,0.9818,0.2163,25.2212,0
2024-09-23,-0.1915,3.9624,0.2873,0.0000,0.9818,0.0483,5.8997,0
2024-09-24,-4.1581,3.9624,0.2873,0.0000,0.9818,1.0494,83.0383,0
2024-09-25,0.8456,3.9624,0.2873,0.0000,0.9818,0.2134,24.7788,0
2024-09-26,-0.1487,3.9624,0.2873,0.0000,0.9818,0.0375,4.2773,0
2024-09-29,-0.0496,3.9624,0.2873,0.0000,0.9818,0.0125,3.3923,0
2024-09-30,2.7412,3.9624,0.2873,0.0000,0.9818,0.6918,72.4189,0
2024-10-02,-2.5429,3.9624,0.2873,0.0000,0.9818,0.6418,69.6165,0
2024-10-03,-2.9148,3.9624,0.2873,0.0000,0.9818,0.7356,73.4513,0
2024-10-06,-4.3780,3.9624,0.2873,0.0000,0.9818,1.1049,83.7758,0
2024-10-07,2.6808,3.9624,0.2873,0.0000,0.9818,0.6766,71.8289,0
2024-10-08,5.0567,3.9624,0.2873,0.0000,0.9818,1.2762,88.2006,0
2024-10-09,0.1478,3.7099,0.3054,0.0041,0.9750,0.0398,4.8673,0
2024-10-10,-1.9389,3.7099,0.3054,0.0041,0.9750,0.5226,56.4897,0
2024-10-13,-0.2010,3.7099,0.3054,0.0041,0.9750,0.0542,6.7847,0
2024-10-14,-1.5206,3.7099,0.3054,0.0041,0.9750,0.4099,43.3628,0
2024-10-15,-1.5959,3.7099,0.3054,0.0041,0.9750,0.4302,44.3953,0
2024-10-16,-1.7273,3.7099,0.3054,0.0041,0.9750,0.4656,51.6224,0
2024-10-17,0.6316,3.7099,0.3054,0.0041,0.9750,0.1702,19.3215,0
2024-10-20,-1.7999,3.7099,0.3054,0.0041,0.9750,0.4852,53.0973,0
2024-10-21,-3.6447,3.7099,0.3054,0.0041,0.9750,0.9824,81.4159,0
2024-10-22,-2.9803,3.7099,0.3054,0.0041,0.9750,0.8033,75.2212,0
2024-10-23,1.8100,3.7099,0.3054,0.0041,0.9750,0.4879,53.2448,0
2024-10-24,-2.4973,3.7099,0.3054,0.0041,0.9750,0.6731,71.6814,0
2024-10-27,-0.9818,3.7099,0.3054,0.0041,0.9750,0.2646,29.7935,0
2024-10-28,-0.8159,3.7099,0.3054,0.0041,0.9750,0.2199,25.8112,0
2024-10-29,3.5636,3.7099,0.3054,0.0041,0.9750,0.9606,81.1209,0
2024-10-30,1.4018,3.7099,0.3054,0.0041,0.9750,0.3778,40.7080,0
2024-10-31,3.6089,3.7099,0.3054,0.0041,0.9750,0.9728,81.2684,0
2024-11-03,3.1195,3.7099,0.3054,0.0041,0.9750,0.8409,76.6962,0
2024-11-04,0.8811,3.7099,0.3054,0.0041,0.9750,0.2375,26.8437,0
2024-11-05,0.4633,3.7099,0.3054,0.0041,0.9750,0.1249,15.1917,0
2024-11-06,-1.9710,3.4192,0.3111,0.0093,0.9679,0.5764,61.3569,0
2024-11-07,-1.6905,3.4192,0.3111,0.0093,0.9679,0.4944,53.8348,0
2024-11-10,1.6381,3.4192,0.3111,0.0093,0.9679,0.4791,52.5074,0
2024-11-11,-4.5572,3.4192,0.3111,0.0093,0.9679,1.3328,88.9381,0
2024-11-12,-5.6417,3.4192,0.3111,0.0093,0.9679,1.6500,93.6578,0
2024-11-13,2.0110,3.4192,0.3111,0.0093,0.9679,0.5881,62.8319,0
2024-11-17,-3.8266,3.4192,0.3111,0.0093,0.9679,1.1191,84.5133,0
2024-11-18,0.2361,3.4192,0.3111,0.0093,0.9679,0.0691,8.9971,0
2024-11-20,-3.7854,3.4192,0.3111,0.0093,0.9679,1.1071,84.0708,0
2024-11-21,2.3003,3.4192,0.3111,0.0093,0.9679,0.6728,71.5339,0
2024-11-24,2.5991,3.4192,0.3111,0.0093,0.9679,0.7601,74.4838,0
2024-11-25,0.0000,3.4192,0.3111,0.0093,0.9679,0.0000,1.3274,0
2024-11-26,1.0441,3.4192,0.3111,0.0093,0.9679,0.3054,33.0383,0
2024-11-27,2.2255,3.4192,0.3111,0.0093,0.9679,0.6509,70.9440,0
2024-11-28,0.9548,3.4192,0.3111,0.0093,0.9679,0.2792,31.1209,0
2024-12-01,5.2801,3.4192,0.3111,0.0093,0.9679,1.5442,92.7729,0
2024-12-02,0.6869,3.4192,0.3111,0.0093,0.9679,0.2009,23.1563,0
2024-12-03,0.0526,3.4192,0.3111,0.0093,0.9679,0.0154,3.6873,0
2024-12-04,1.7737,3.4192,0.3111,0.0093,0.9679,0.5187,56.1947,0
2024-12-05,-0.9873,3.4192,0.3111,0.0093,0.9679,0.2887,31.5634,0
2024-12-08,2.8316,3.3353,0.3073,0.0112,0.9656,0.8490,76.8437,0
2024-12-09,-0.7132,3.3353,0.3073,0.0112,0.9656,0.2138,24.9263,0
2024-12-10,-1.3382,3.3353,0.3073,0.0112,0.9656,0.4012,42.9204,0
2024-12-11,-0.4674,3.3353,0.3073,0.0112,0.9656,0.1401,16.0767,0
2024-12-12,-1.0992,3.3353,0.3073,0.0112,0.9656,0.3296,36.7257,0
2024-12-15,2.9048,3.3353,0.3073,0.0112,0.9656,0.8709,78.3186,0
2024-12-16,-3.1683,3.3353,0.3073,0.0112,0.9656,0.9499,80.8260,0
2024-12-17,-1.4350,3.3353,0.3073,0.0112,0.9656,0.4303,44.5428,0
2024-12-18,0.6935,3.3353,0.3073,0.0112,0.9656,0.2079,24.0413,0
2024-12-19,-0.3195,3.3353,0.3073,0.0112,0.9656,0.0958,12.0944,0
2024-12-22,-3.1972,3.3353,0.3073,0.0112,0.9656,0.9586,80.9735,0
2024-12-23,-1.0518,3.3353,0.3073,0.0112,0.9656,0.3153,35.1032,0
2024-12-25,-1.0629,3.3353,0.3073,0.0112,0.9656,0.3187,35.5457,0
2024-12-26,0.2808,3.3353,0.3073,0.0112,0.9656,0.0842,10.4720,0
2024-12-29,-1.1280,3.3353,0.3073,0.0112,0.9656,0.3382,37.1681,0
2024-12-30,3.0720,3.3353,0.3073,0.0112,0.9656,0.9210,80.2360,0
2024-12-31,0.0000,3.3353,0.3073,0.0112,0.9656,0.0000,1.3274,0
2025-01-01,1.8529,3.3353,0.3073,0.0112,0.9656,0.5555,59.5870,0
2025-01-02,-1.1950,3.3353,0.3073,0.0112,0.9656,0.3583,39.0855,0
2025-01-05,-4.8135,3.3353,0.3073,0.0112,0.9656,1.4432,91.2979,0
2025-01-06,3.2161,3.1450,0.2963,0.0147,0.9618,1.0226,82.5959,0
2025-01-07,0.0000,3.1450,0.2963,0.0147,0.9618,0.0000,1.3274,0
2025-01-08,0.2772,3.1450,0.2963,0.0147,0.9618,0.0882,11.0619,0
2025-01-09,-4.8790,3.1450,0.2963,0.0147,0.9618,1.5514,92.9204,0
2025-01-12,-1.8188,3.1450,0.2963,0.0147,0.9618,0.5783,61.5044,0
2025-01-13,0.7080,3.1450,0.2963,0.0147,0.9618,0.2251,26.1062,0
2025-01-14,0.5277,3.1450,0.2963,0.0147,0.9618,0.1678,18.8791,0
2025-01-15,0.5249,3.1450,0.2963,0.0147,0.9618,0.1669,18.7316,0
2025-01-16,-1.8198,3.1450,0.2963,0.0147,0.9618,0.5786,61.6519,0
2025-01-19,1.0607,3.1450,0.2963,0.0147,0.9618,0.3373,37.0206,0
2025-01-20,-3.2770,3.1450,0.2963,0.0147,0.9618,1.0420,82.8909,0
2025-01-21,0.4834,3.1450,0.2963,0.0147,0.9618,0.1537,17.5516,0
2025-01-22,-0.1810,3.1450,0.2963,0.0147,0.9618,0.0576,7.2271,0
2025-01-23,-8.9650,3.1450,0.2963,0.0147,0.9618,2.8505,98.0826,0
2025-01-26,-4.0437,3.1450,0.2963,0.0147,0.9618,1.2857,88.6431,0
2025-01-27,5.6814,3.1450,0.2963,0.0147,0.9618,1.8065,94.8378,0
2025-01-28,4.3858,3.1450,0.2963,0.0147,0.9618,1.3945,90.8555,0
2025-01-29,10.3306,3.1450,0.2963,0.0147,0.9618,3.2848,98.9676,0
2025-01-30,8.8506,3.1450,0.2963,0.0147,0.9618,2.8142,97.9351,0
2025-01-31,2.9838,3.1450,0.2963,0.0147,0.9618,0.9487,80.6785,0
2025-02-02,-2.2677,3.7801,0.3230,0.0158,0.9601,0.5999,63.2743,0
2025-02-03,1.4170,3.7801,0.3230,0.0158,0.9601,0.3749,40.4130,0
2025-02-04,-3.3728,3.7801,0.3230,0.0158,0.9601,0.8923,78.7611,0
2025-02-05,6.0013,3.7801,0.3230,0.0158,0.9601,1.5876,93.0678,0
2025-02-06,-4.6590,3.7801,0.3230,0.0158,0.9601,1.2325,86.4307,0
2025-02-09,-0.7722,3.7801,0.3230,0.0158,0.9601,0.2043,23.4513,0
2025-02-10,4.6943,3.7801,0.3230,0.0158,0.9601,1.2418,86.7257,0
2025-02-11,9.1358,3.7801,0.3230,0.0158,0.9601,2.4168,96.9027,0
2025-02-12,1.7400,3.7801,0.3230,0.0158,0.9601,0.4603,51.0324,0
2025-02-13,-0.7993,3.7801,0.3230,0.0158,0.9601,0.2114,24.4838,0
2025-02-16,0.4004,3.7801,0.3230,0.0158,0.9601,0.1059,12.6844,0
2025-02-17,1.8914,3.7801,0.3230,0.0158,0.9601,0.5004,54.1298,0
2025-02-18,9.5904,3.7801,0.3230,0.0158,0.9601,2.5371,97.0501,0
2025-02-19,7.1418,3.7801,0.3230,0.0158,0.9601,1.8893,95.2802,0
2025-02-20,10.7864,3.7801,0.3230,0.0158,0.9601,2.8535,98.2301,0
2025-02-23,18.2211,3.7801,0.3230,0.0158,0.9601,4.8203,100.0000,0
2025-02-24,-5.1497,3.7801,0.3230,0.0158,0.9601,1.3623,90.2655,0
2025-02-26,-5.1538,3.7801,0.3230,0.0158,0.9601,1.3634,90.5605,0
2025-02-27,-5.1438,3.7801,0.3230,0.0158,0.9601,1.3608,90.1180,0
2025-03-02,-5.1514,3.7801,0.3230,0.0158,0.9601,1.3628,90.4130,0
2025-03-03,-5.1454,5.6502,0.3661,0.0348,0.9434,0.9107,79.3510,1
2025-03-04,-5.1613,5.6502,0.3661,0.0348,0.9434,0.9135,79.6460,1
2025-03-05,-5.1649,5.6502,0.3661,0.0348,0.9434,0.9141,79.7935,1
2025-03-06,4.8639,5.6502,0.3661,0.0348,0.9434,0.8608,77.5811,1
2025-03-09,-5.1412,5.6502,0.3661,0.0348,0.9434,0.9099,79.2035,1
2025-03-10,-5.1690,5.6502,0.3661,0.0348,0.9434,0.9148,79.9410,1
2025-03-11,-0.5445,5.6502,0.3661,0.0348,0.9434,0.0964,12.2419,1
2025-03-12,4.8770,5.6502,0.3661,0.0348,0.9434,0.8632,78.1711,1
2025-03-16,-5.1293,5.6502,0.3661,0.0348,0.9434,0.9078,79.0560,1
2025-03-17,0.0000,5.6502,0.3661,0.0348,0.9434,0.0000,1.3274,1
2025-03-18,6.9526,5.6502,0.3661,0.0348,0.9434,1.2305,86.1357,1
2025-03-19,4.8678,5.6502,0.3661,0.0348,0.9434,0.8615,77.7286,1
2025-03-20,4.8559,5.6502,0.3661,0.0348,0.9434,0.8594,77.2861,1
2025-03-23,4.8688,5.6502,0.3661,0.0348,0.9434,0.8617,77.8761,1
2025-03-24,4.8693,5.6502,0.3661,0.0348,0.9434,0.8618,78.0236,1
2025-03-25,1.9530,5.6502,0.3661,0.0348,0.9434,0.3457,37.4631,1
2025-03-26,1.9778,5.6502,0.3661,0.0348,0.9434,0.3500,38.6431,1
2025-03-27,1.9699,5.6502,0.3661,0.0348,0.9434,0.3486,38.3481,1
2025-03-31,1.9617,5.6502,0.3661,0.0348,0.9434,0.3472,37.7581,1
2025-04-01,1.9533,5.6502,0.3661,0.0348,0.9434,0.3457,37.6106,1
2025-04-02,1.9734,4.4880,0.3873,0.0318,0.9433,0.4397,47.1976,1
2025-04-03,1.9634,4.4880,0.3873,0.0318,0.9433,0.4375,46.0177,1
2025-04-06,1.9532,4.4880,0.3873,0.0318,0.9433,0.4352,45.1327,1
2025-04-07,1.9700,4.4880,0.3873,0.0318,0.9433,0.4389,46.6077,1
2025-04-08,1.9585,4.4880,0.3873,0.0318,0.9433,0.4364,45.4277,1
2025-04-10,1.9730,4.4880,0.3873,0.0318,0.9433,0.4396,47.0501,1
2025-04-14,1.9603,4.4880,0.3873,0.0318,0.9433,0.4368,45.8702,1
2025-04-15,1.9727,4.4880,0.3873,0.0318,0.9433,0.4396,46.9027,1
2025-04-16,1.9591,4.4880,0.3873,0.0318,0.9433,0.4365,45.5752,1
2025-04-20,-2.0343,4.4880,0.3873,0.0318,0.9433,0.4533,49.2625,1
2025-04-21,-2.0254,4.4880,0.3873,0.0318,0.9433,0.4513,48.6726,1
2025-04-22,-2.0412,4.4880,0.3873,0.0318,0.9433,0.4548,49.5575,1
2025-04-23,-2.0304,4.4880,0.3873,0.0318,0.9433,0.4524,48.8201,1
2025-04-24,-2.0453,4.4880,0.3873,0.0318,0.9433,0.4557,50.0000,1
2025-04-27,-2.0325,4.4880,0.3873,0.0318,0.9433,0.4529,49.1150,1
2025-04-28,-2.0463,4.4880,0.3873,0.0318,0.9433,0.4560,50.2950,1
2025-04-29,-2.0313,4.4880,0.3873,0.0318,0.9433,0.4526,48.9676,1
2025-05-01,-2.0439,4.4880,0.3873,0.0318,0.9433,0.4554,49.8525,1
2025-05-04,-5.1449,4.4880,0.3873,0.0318,0.9433,1.1464,85.3982,1
2025-05-05,-5.1293,4.4880,0.3873,0.0318,0.9433,1.1429,85.2507,1
2025-05-06,0.7815,3.5905,0.4927,0.0358,0.9295,0.2177,25.5162,0
2025-05-07,4.8435,3.5905,0.4927,0.0358,0.9295,1.3490,89.5280,0
2025-05-08,4.7966,3.5905,0.4927,0.0358,0.9295,1.3359,89.2330,0
2025-05-11,4.8580,3.5905,0.4927,0.0358,0.9295,1.3530,89.6755,0
2025-05-12,4.8737,3.5905,0.4927,0.0358,0.9295,1.3574,89.9705,0
2025-05-13,0.8515,3.5905,0.4927,0.0358,0.9295,0.2372,26.6962,0
2025-05-14,-2.0343,3.5905,0.4927,0.0358,0.9295,0.5666,60.4720,0
2025-05-15,1.3964,3.5905,0.4927,0.0358,0.9295,0.3889,41.5929,0
2025-05-18,0.0000,3.5905,0.4927,0.0358,0.9295,0.0000,1.3274,0
2025-05-19,1.9803,3.5905,0.4927,0.0358,0.9295,0.5515,59.2920,0
2025-05-20,1.9674,3.5905,0.4927,0.0358,0.9295,0.5480,58.2596,0
2025-05-21,1.9798,3.5905,0.4927,0.0358,0.9295,0.5514,58.9971,0
2025-05-22,1.9660,3.5905,0.4927,0.0358,0.9295,0.5475,58.1121,0
2025-05-25,1.9764,3.5905,0.4927,0.0358,0.9295,0.5505,58.7021,0
2025-05-26,1.9618,3.5905,0.4927,0.0358,0.9295,0.5464,57.9646,0
2025-05-27,1.9705,3.5905,0.4927,0.0358,0.9295,0.5488,58.5546,0
2025-05-28,1.9780,3.5905,0.4927,0.0358,0.9295,0.5509,58.8496,0
2025-05-29,-2.0245,3.5905,0.4927,0.0358,0.9295,0.5638,60.1770,0
2025-06-01,-2.0426,3.5905,0.4927,0.0358,0.9295,0.5689,60.7670,0
2025-06-02,-2.0367,3.5905,0.4927,0.0358,0.9295,0.5673,60.6195,0
2025-06-03,-2.0297,3.1722,0.5308,0.0388,0.9223,0.6398,68.8791,0
2025-06-04,-2.0213,3.1722,0.5308,0.0388,0.9223,0.6372,67.6991,0
2025-06-05,-2.0372,3.1722,0.5308,0.0388,0.9223,0.6422,69.9115,0
2025-06-08,1.9616,3.1722,0.5308,0.0388,0.9223,0.6184,65.1917,0
2025-06-09,-2.0388,3.1722,0.5308,0.0388,0.9223,0.6427,70.0590,0
2025-06-10,-2.0287,3.1722,0.5308,0.0388,0.9223,0.6395,68.5841,0
2025-06-11,-2.0439,3.1722,0.5308,0.0388,0.9223,0.6443,70.3540,0
2025-06-12,-2.0318,3.1722,0.5308,0.0388,0.9223,0.6405,69.1740,0
2025-06-15,-2.0460,3.1722,0.5308,0.0388,0.9223,0.6450,70.6490,0
2025-06-16,-2.0317,3.1722,0.5308,0.0388,0.9223,0.6405,69.0265,0
2025-06-17,-2.0447,3.1722,0.5308,0.0388,0.9223,0.6446,70.5015,0
2025-06-18,-2.0280,3.1722,0.5308,0.0388,0.9223,0.6393,68.4366,0
2025-06-19,-2.0397,3.1722,0.5308,0.0388,0.9223,0.6430,70.2065,0
2025-06-22,-5.1293,3.1722,0.5308,0.0388,0.9223,1.6170,93.5103,0
2025-06-23,1.1418,3.1722,0.5308,0.0388,0.9223,0.3599,39.3805,0
2025-06-24,0.3777,3.1722,0.5308,0.0388,0.9223,0.1191,14.4543,0
2025-06-25,-1.5833,3.1722,0.5308,0.0388,0.9223,0.4991,53.9823,0
2025-06-26,4.8288,3.1722,0.5308,0.0388,0.9223,1.5223,92.3304,0
2025-06-29,4.8674,3.1722,0.5308,0.0388,0.9223,1.5344,92.4779,0
2025-06-30,1.8086,3.1722,0.5308,0.0388,0.9223,0.5701,61.0619,0
2025-07-01,-4.0644,3.2563,0.5267,0.0402,0.9205,1.2482,86.8732,0
2025-07-02,-4.8879,3.2563,0.5267,0.0402,0.9205,1.5010,92.0354,0
2025-07-03,-0.2180,3.2563,0.5267,0.0402,0.9205,0.0670,8.4071,0
2025-07-06,0.1246,3.2563,0.5267,0.0402,0.9205,0.0383,4.5723,0
2025-07-07,-0.3432,3.2563,0.5267,0.0402,0.9205,0.1054,12.5369,0
2025-07-08,-1.8291,3.2563,0.5267,0.0402,0.9205,0.5617,60.0295,0
2025-07-09,-0.6386,3.2563,0.5267,0.0402,0.9205,0.1961,22.4189,0
2025-07-10,1.6834,3.2563,0.5267,0.0402,0.9205,0.5170,55.6047,0
2025-07-13,-0.5685,3.2563,0.5267,0.0402,0.9205,0.1746,19.7640,0
2025-07-14,1.1339,3.2563,0.5267,0.0402,0.9205,0.3482,38.2006,0
2025-07-15,4.8596,3.2563,0.5267,0.0402,0.9205,1.4924,91.7404,0
2025-07-16,4.8620,3.2563,0.5267,0.0402,0.9205,1.4931,91.8879,0
2025-07-17,4.8533,3.2563,0.5267,0.0402,0.9205,1.4904,91.5929,0
2025-07-20,-2.8001,3.2563,0.5267,0.0402,0.9205,0.8599,77.4336,0
2025-07-21,-2.0248,3.2563,0.5267,0.0402,0.9205,0.6218,65.7817,0
2025-07-22,-2.0377,3.2563,0.5267,0.0402,0.9205,0.6258,66.2242,0
2025-07-23,-2.0209,3.2563,0.5267,0.0402,0.9205,0.6206,65.6342,0
2025-07-24,-2.0323,3.2563,0.5267,0.0402,0.9205,0.6241,65.9292,0
2025-07-27,-2.0437,3.2563,0.5267,0.0402,0.9205,0.6276,66.3717,0
2025-07-28,1.9531,3.2563,0.5267,0.0402,0.9205,0.5998,63.1268,0
2025-07-29,-0.1210,3.1990,0.5095,0.0397,0.9216,0.0378,4.4248,0
2025-07-30,1.2030,3.1990,0.5095,0.0397,0.9216,0.3761,40.5605,0
2025-07-31,0.4474,3.1990,0.5095,0.0397,0.9216,0.1399,15.9292,0
2025-08-03,1.9744,3.1990,0.5095,0.0397,0.9216,0.6172,65.0442,0
2025-08-04,1.7643,3.1990,0.5095,0.0397,0.9216,0.5515,59.1445,0
2025-08-05,-2.0273,3.1990,0.5095,0.0397,0.9216,0.6337,66.9617,0
2025-08-06,-2.0394,3.1990,0.5095,0.0397,0.9216,0.6375,67.8466,0
2025-08-07,-1.4739,3.1990,0.5095,0.0397,0.9216,0.4607,51.1799,0
2025-08-10,0.0000,3.1990,0.5095,0.0397,0.9216,0.0000,1.3274,0
2025-08-11,-2.0203,3.1990,0.5095,0.0397,0.9216,0.6315,66.7404,0
2025-08-12,-1.9988,3.1990,0.5095,0.0397,0.9216,0.6248,66.0767,0
2025-08-13,-2.0396,3.1990,0.5095,0.0397,0.9216,0.6376,67.9941,0
2025-08-17,-2.0492,3.1990,0.5095,0.0397,0.9216,0.6406,69.3215,0
2025-08-18,1.9526,3.1990,0.5095,0.0397,0.9216,0.6104,64.3068,0
2025-08-19,1.8203,3.1990,0.5095,0.0397,0.9216,0.5690,60.9145,0
2025-08-20,1.9741,3.1990,0.5095,0.0397,0.9216,0.6171,64.8968,0
2025-08-21,1.9663,3.1990,0.5095,0.0397,0.9216,0.6146,64.4543,0
2025-08-24,0.3947,3.1990,0.5095,0.0397,0.9216,0.1234,14.8968,0
2025-08-25,-2.0203,3.1990,0.5095,0.0397,0.9216,0.6315,66.7404,0
2025-08-27,-2.0304,3.1990,0.5095,0.0397,0.9216,0.6347,67.4041,0
2025-08-28,-1.8793,2.8477,0.4785,0.0424,0.9200,0.6599,71.2389,0
2025-08-31,0.1927,2.8477,0.4785,0.0424,0.9200,0.0677,8.7021,0
2025-09-01,-3.2287,2.8477,0.4785,0.0424,0.9200,1.1338,84.9558,0
2025-09-02,0.0331,2.8477,0.4785,0.0424,0.9200,0.0116,3.2448,0
2025-09-03,-2.1773,2.8477,0.4785,0.0424,0.9200,0.7646,74.6313,0
2025-09-04,0.2705,2.8477,0.4785,0.0424,0.9200,0.0950,11.9469,0
2025-09-07,2.2045,2.8477,0.4785,0.0424,0.9200,0.7741,74.9263,0
2025-09-08,-0.8960,2.8477,0.4785,0.0424,0.9200,0.3146,34.9558,0
2025-09-09,1.6529,2.8477,0.4785,0.0424,0.9200,0.5804,62.0944,0
2025-09-10,0.3273,2.8477,0.4785,0.0424,0.9200,0.1149,13.8643,0
2025-09-11,1.3954,2.8477,0.4785,0.0424,0.9200,0.4900,53.3923,0
2025-09-14,9.0523,2.8477,0.4785,0.0424,0.9200,3.1788,98.8201,0
2025-09-15,2.6149,2.8477,0.4785,0.0424,0.9200,0.9182,80.0885,0
2025-09-16,-5.9675,2.8477,0.4785,0.0424,0.9200,2.0955,95.8702,0
2025-09-17,4.9008,2.8477,0.4785,0.0424,0.9200,1.7209,94.3953,0
2025-09-18,0.8371,2.8477,0.4785,0.0424,0.9200,0.2939,31.7109,0
2025-09-21,-4.8891,2.8477,0.4785,0.0424,0.9200,1.7168,94.2478,0
2025-09-22,-0.8183,2.8477,0.4785,0.0424,0.9200,0.2874,31.4159,0
2025-09-23,-2.0290,2.8477,0.4785,0.0424,0.9200,0.7125,72.7139,0
2025-09-24,-0.5293,2.8477,0.4785,0.0424,0.9200,0.1859,21.6814,0
2025-09-25,-2.0502,3.3685,0.4958,0.0413,0.9198,0.6086,64.0118,0
2025-09-28,-1.4444,3.3685,0.4958,0.0413,0.9198,0.4288,44.2478,0
2025-09-29,0.0969,3.3685,0.4958,0.0413,0.9198,0.0288,3.8348,0
2025-09-30,-1.3331,3.3685,0.4958,0.0413,0.9198,0.3958,42.3304,0
2025-10-02,8.0169,3.3685,0.4958,0.0413,0.9198,2.3800,96.4602,0
2025-10-05,-1.7678,3.3685,0.4958,0.0413,0.9198,0.5248,56.7847,0
2025-10-06,-0.8027,3.3685,0.4958,0.0413,0.9198,0.2383,26.9912,0
2025-10-07,-2.1621,3.3685,0.4958,0.0413,0.9198,0.6419,69.7640,0
2025-10-08,1.1025,3.3685,0.4958,0.0413,0.9198,0.3273,36.4307,0
2025-10-09,-1.3563,3.3685,0.4958,0.0413,0.9198,0.4026,43.2153,0
2025-10-12,-4.2491,3.3685,0.4958,0.0413,0.9198,1.2614,87.6106,0
2025-10-13,0.1325,3.3685,0.4958,0.0413,0.9198,0.0393,4.7198,0
2025-10-14,-1.0311,3.3685,0.4958,0.0413,0.9198,0.3061,33.3333,0
2025-10-15,3.3857,3.3685,0.4958,0.0413,0.9198,1.0051,82.0059,0
2025-10-16,-4.0566,3.3685,0.4958,0.0413,0.9198,1.2043,85.8407,0
2025-10-19,0.6375,3.3685,0.4958,0.0413,0.9198,0.1892,22.1239,0
2025-10-20,-0.2679,3.3685,0.4958,0.0413,0.9198,0.0795,10.0295,0
2025-10-22,0.2345,3.3685,0.4958,0.0413,0.9198,0.0696,9.1445,0
2025-10-23,0.1671,3.3685,0.4958,0.0413,0.9198,0.0496,6.0472,0
2025-10-26,-0.5023,3.3685,0.4958,0.0413,0.9198,0.1491,16.6667,0
2025-10-27,0.0336,3.0368,0.4794,0.0400,0.9214,0.0111,2.8024,0
2025-10-28,-0.8425,3.0368,0.4794,0.0400,0.9214,0.2774,30.6785,0
2025-10-29,0.8089,3.0368,0.4794,0.0400,0.9214,0.2664,29.9410,0
2025-10-30,-2.2061,3.0368,0.4794,0.0400,0.9214,0.7264,73.1563,0
2025-11-02,0.5476,3.0368,0.4794,0.0400,0.9214,0.1803,20.6490,0
2025-11-03,-3.6140,3.0368,0.4794,0.0400,0.9214,1.1901,85.5457,0
2025-11-05,0.8457,3.0368,0.4794,0.0400,0.9214,0.2785,30.8260,0
2025-11-06,-1.2002,3.0368,0.4794,0.0400,0.9214,0.3952,42.1829,0
2025-11-09,3.6951,3.0368,0.4794,0.0400,0.9214,1.2168,85.9882,0
2025-11-10,-0.9629,3.0368,0.4794,0.0400,0.9214,0.3171,35.2507,0
2025-11-11,-0.2422,3.0368,0.4794,0.0400,0.9214,0.0797,10.1770,0
2025-11-12,0.5182,3.0368,0.4794,0.0400,0.9214,0.1706,19.4690,0
2025-11-13,0.9261,3.0368,0.4794,0.0400,0.9214,0.3050,32.8909,0
2025-11-16,2.0612,3.0368,0.4794,0.0400,0.9214,0.6787,71.9764,0
2025-11-17,-0.5702,3.0368,0.4794,0.0400,0.9214,0.1878,21.9764,0
2025-11-18,0.4698,3.0368,0.4794,0.0400,0.9214,0.1547,17.8466,0
2025-11-19,-0.4698,3.0368,0.4794,0.0400,0.9214,0.1547,17.6991,0
2025-11-20,-2.0388,3.0368,0.4794,0.0400,0.9214,0.6714,71.3864,0
2025-11-23,-3.1029,3.0368,0.4794,0.0400,0.9214,1.0218,82.4484,0
2025-11-24,1.9289,3.0368,0.4794,0.0400,0.9214,0.6352,67.5516,0
2025-11-25,0.3121,2.7661,0.4619,0.0431,0.9186,0.1128,13.7168,0
2025-11-26,3.1359,2.7661,0.4619,0.0431,0.9186,1.1337,84.8083,0
2025-11-27,1.3665,2.7661,0.4619,0.0431,0.9186,0.4940,53.6873,0
2025-11-30,-1.5344,2.7661,0.4619,0.0431,0.9186,0.5547,59.4395,0
2025-12-01,-0.2019,2.7661,0.4619,0.0431,0.9186,0.0730,9.2920,0
2025-12-02,1.3383,2.7661,0.4619,0.0431,0.9186,0.4838,52.9499,0
2025-12-03,-0.3329,2.7661,0.4619,0.0431,0.9186,0.1203,14.6018,0
2025-12-04,0.4989,2.7661,0.4619,0.0431,0.9186,0.1804,20.9440,0
2025-12-07,-0.4989,2.7661,0.4619,0.0431,0.9186,0.1804,20.7965,0
2025-12-08,0.9623,2.7661,0.4619,0.0431,0.9186,0.3479,38.0531,0
2025-12-09,2.4145,2.7661,0.4619,0.0431,0.9186,0.8729,78.4661,0
2025-12-10,0.1611,2.7661,0.4619,0.0431,0.9186,0.0582,7.5221,0
2025-12-11,0.3213,2.7661,0.4619,0.0431,0.9186,0.1162,14.1593,0
2025-12-14,0.7033,2.7661,0.4619,0.0431,0.9186,0.2543,28.9086,0
2025-12-15,-1.2180,2.7661,0.4619,0.0431,0.9186,0.4403,47.4926,0
2025-12-16,-1.4291,2.7661,0.4619,0.0431,0.9186,0.5166,55.4572,0
2025-12-17,-1.2177,2.7661,0.4619,0.0431,0.9186,0.4402,47.3451,0
2025-12-18,1.3158,2.7661,0.4619,0.0431,0.9186,0.4757,52.0649,0
2025-12-21,1.8777,2.7661,0.4619,0.0431,0.9186,0.6788,72.1239,0
2025-12-22,-1.0316,2.7661,0.4619,0.0431,0.9186,0.3729,40.2655,0
2025-12-23,0.4204,2.4794,0.4034,0.0469,0.9189,0.1695,19.1740,0
2025-12-25,-0.1615,2.4794,0.4034,0.0469,0.9189,0.0651,8.2596,0
2025-12-28,2.9615,2.4794,0.4034,0.0469,0.9189,1.1945,85.6932,0
2025-12-29,-0.6611,2.4794,0.4034,0.0469,0.9189,0.2666,30.0885,0
2025-12-30,3.2932,2.4794,0.4034,0.0469,0.9189,1.3282,88.7906,0
2025-12-31,-3.1670,2.4794,0.4034,0.0469,0.9189,1.2773,88.3481,0
2026-01-01,0.3464,2.4794,0.4034,0.0469,0.9189,0.1397,15.7817,0
2026-01-04,-0.6307,2.4794,0.4034,0.0469,0.9189,0.2544,29.0560,0
2026-01-05,-0.9536,2.4794,0.4034,0.0469,0.9189,0.3846,41.2979,0
2026-01-06,-1.2858,2.4794,0.4034,0.0469,0.9189,0.5186,55.8997,0
2026-01-07,-0.3565,2.4794,0.4034,0.0469,0.9189,0.1438,16.3717,0
2026-01-08,0.3565,2.4794,0.4034,0.0469,0.9189,0.1438,16.2242,0
2026-01-11,-1.3353,2.4794,0.4034,0.0469,0.9189,0.5386,57.5221,0
2026-01-12,0.0000,2.4794,0.4034,0.0469,0.9189,0.0000,1.3274,0
2026-01-13,0.1311,2.4794,0.4034,0.0469,0.9189,0.0529,6.3422,0
2026-01-15,0.2943,2.4794,0.4034,0.0469,0.9189,0.1187,14.3068,0
2026-01-18,10.9661,2.4794,0.4034,0.0469,0.9189,4.4229,99.7050,0
2026-01-19,-11.3258,2.4794,0.4034,0.0469,0.9189,4.5680,99.8525,0
2026-01-20,0.0000,2.4794,0.4034,0.0469,0.9189,0.0000,1.3274,0
2026-01-21,1.1079,2.4794,0.4034,0.0469,0.9189,0.4468,48.5251,0
2026-01-22,-0.9769,3.9904,0.5045,0.0493,0.9092,0.2448,27.5811,0
2026-01-26,0.3593,3.9904,0.5045,0.0493,0.9092,0.0900,11.3569,0
2026-01-27,0.2930,3.9904,0.5045,0.0493,0.9092,0.0734,9.4395,0
2026-01-28,1.8680,3.9904,0.5045,0.0493,0.9092,0.4681,51.7699,0
2026-01-29,-2.4222,3.9904,0.5045,0.0493,0.9092,0.6070,63.8643,0
2026-02-01,-1.2831,3.9904,0.5045,0.0493,0.9092,0.3216,35.8407,0
2026-02-02,0.9885,3.9904,0.5045,0.0493,0.9092,0.2477,27.8761,0
2026-02-03,0.6536,3.9904,0.5045,0.0493,0.9092,0.1638,18.1416,0
2026-02-04,-0.6536,3.9904,0.5045,0.0493,0.9092,0.1638,18.2891,0
2026-02-05,0.1311,3.9904,0.5045,0.0493,0.9092,0.0328,3.9823,0
2026-02-08,2.3302,3.9904,0.5045,0.0493,0.9092,0.5839,62.2419,0
2026-02-09,-0.7707,3.9904,0.5045,0.0493,0.9092,0.1931,22.2714,0
2026-02-10,-1.2652,3.9904,0.5045,0.0493,0.9092,0.3171,35.3982,0
2026-02-11,1.2330,3.9904,0.5045,0.0493,0.9092,0.3090,33.7758,0
2026-02-12,-1.2330,3.9904,0.5045,0.0493,0.9092,0.3090,33.9233,0
2026-02-15,1.5871,3.9904,0.5045,0.0493,0.9092,0.3977,42.4779,0
2026-02-16,-0.2574,3.9904,0.5045,0.0493,0.9092,0.0645,8.1121,0
2026-02-17,-0.0322,3.9904,0.5045,0.0493,0.9092,0.0081,2.6549,0
2026-02-18,-1.4608,3.9904,0.5045,0.0493,0.9092,0.3661,39.6755,0
2026-02-19,1.5897,3.9904,0.5045,0.0493,0.9092,0.3984,42.6254,0
2026-02-22,2.2594,2.7645,0.4926,0.0476,0.9094,0.8173,75.9587,0
2026-02-23,8.2122,2.7645,0.4926,0.0476,0.9094,2.9706,98.5251,0
2026-02-24,7.4274,2.7645,0.4926,0.0476,0.9094,2.6867,97.6401,0
2026-02-25,3.4906,2.7645,0.4926,0.0476,0.9094,1.2627,87.7581,0
2026-02-26,-7.9480,2.7645,0.4926,0.0476,0.9094,2.8750,98.3776,0
2026-03-01,-7.5668,2.7645,0.4926,0.0476,0.9094,2.7371,97.7876,0
2026-03-03,2.7538,2.7645,0.4926,0.0476,0.9094,0.9962,81.7109,0
2026-03-04,1.3199,2.7645,0.4926,0.0476,0.9094,0.4774,52.3599,0
2026-03-05,4.4452,2.7645,0.4926,0.0476,0.9094,1.6080,93.3628,0
2026-03-08,-3.7483,2.7645,0.4926,0.0476,0.9094,1.3559,89.8230,0
2026-03-09,11.7011,2.7645,0.4926,0.0476,0.9094,4.2327,99.5575,0
2026-03-10,1.4312,2.7645,0.4926,0.0476,0.9094,0.5177,55.7522,0
2026-03-11,-8.5513,2.7645,0.4926,0.0476,0.9094,3.0933,98.6726,0
2026-03-12,1.5904,2.7645,0.4926,0.0476,0.9094,0.5753,61.2094,0
2026-03-15,-4.2512,2.7645,0.4926,0.0476,0.9094,1.5378,92.6254,0
2026-03-16,-2.5878,2.7645,0.4926,0.0476,0.9094,0.9361,80.3835,0
2026-03-17,-0.2041,2.7645,0.4926,0.0476,0.9094,0.0738,9.5870,0
2026-03-18,-2.0346,2.7645,0.4926,0.0476,0.9094,0.7360,73.5988,0
2026-03-19,-1.7731,2.7645,0.4926,0.0476,0.9094,0.6414,69.4690,0
2026-03-22,-9.4371,2.7645,0.4926,0.0476,0.9094,3.4137,99.1150,0
2026-03-23,3.8567,4.5271,0.5390,0.0539,0.9033,0.8519,76.9912,1
2026-03-24,-0.5465,4.5271,0.5390,0.0539,0.9033,0.1207,14.7493,1
2026-03-26,-1.8218,4.5271,0.5390,0.0539,0.9033,0.4024,43.0678,1
2026-03-29,-2.3585,4.5271,0.5390,0.0539,0.9033,0.5210,56.3422,1
2026-03-31,1.6006,4.5271,0.5390,0.0539,0.9033,0.3536,38.7906,1
2026-04-01,-0.2318,4.5271,0.5390,0.0539,0.9033,0.0512,6.1947,1
2026-04-05,0.5621,4.5271,0.5390,0.0539,0.9033,0.1242,15.0442,1
2026-04-06,-0.2641,4.5271,0.5390,0.0539,0.9033,0.0583,7.6696,1
2026-04-07,0.4946,4.5271,0.5390,0.0539,0.9033,0.1093,13.4218,1
2026-04-08,1.0471,4.5271,0.5390,0.0539,0.9033,0.2313,26.4012,1
2026-04-09,8.6333,4.5271,0.5390,0.0539,0.9033,1.9070,95.4277,1
2026-04-12,1.6289,4.5271,0.5390,0.0539,0.9033,0.3598,39.2330,1
2026-04-14,2.8954,4.5271,0.5390,0.0539,0.9033,0.6396,68.7316,1
2026-04-15,0.0571,4.5271,0.5390,0.0539,0.9033,0.0126,3.5398,1
2026-04-16,2.7846,4.5271,0.5390,0.0539,0.9033,0.6151,64.6018,1
2026-04-19,-7.6650,4.5271,0.5390,0.0539,0.9033,1.6932,93.8053,1
2026-04-20,-1.1446,4.5271,0.5390,0.0539,0.9033,0.2528,28.6136,1
2026-04-21,1.3839,4.5271,0.5390,0.0539,0.9033,0.3057,33.1858,1
2026-04-22,-2.0526,4.5271,0.5390,0.0539,0.9033,0.4534,49.4100,1
2026-04-23,-0.5811,4.5271,0.5390,0.0539,0.9033,0.1284,15.4867,1
2026-04-26,-2.2020,3.5050,0.5383,0.0505,0.9054,0.6282,66.5192,0
2026-04-27,-1.1353,3.5050,0.5383,0.0505,0.9054,0.3239,36.1357,0
2026-04-28,1.8539,3.5050,0.5383,0.0505,0.9054,0.5289,57.2271,0
2026-04-29,0.6207,3.5050,0.5383,0.0505,0.9054,0.1771,20.2065,0
2026-05-03,-0.8389,3.5050,0.5383,0.0505,0.9054,0.2393,27.1386,0
2026-05-04,1.0861,3.5050,0.5383,0.0505,0.9054,0.3099,34.3658,0
2026-05-05,-0.8991,3.5050,0.5383,0.0505,0.9054,0.2565,29.4985,0
2026-05-06,0.3730,3.5050,0.5383,0.0505,0.9054,0.1064,12.9794,0
2026-05-07,-0.4042,3.5050,0.5383,0.0505,0.9054,0.1153,14.0118,0
2026-05-10,-0.3745,3.5050,0.5383,0.0505,0.9054,0.1069,13.2743,0
2026-05-11,-4.3131,3.5050,0.5383,0.0505,0.9054,1.2306,86.2832,0
2026-05-12,-0.6880,3.5050,0.5383,0.0505,0.9054,0.1963,22.7139,0
2026-05-13,1.6303,3.5050,0.5383,0.0505,0.9054,0.4651,51.4749,0
2026-05-14,-5.9978,3.5050,0.5383,0.0505,0.9054,1.7112,94.1003,0
2026-05-17,3.9062,3.5050,0.5383,0.0505,0.9054,1.1145,84.3658,0
2026-05-18,-1.5979,3.5050,0.5383,0.0505,0.9054,0.4559,50.1475,0
2026-05-19,-0.3025,3.5050,0.5383,0.0505,0.9054,0.0863,10.7670,0
2026-05-20,-1.1510,3.5050,0.5383,0.0505,0.9054,0.3284,36.5782,0
2026-05-21,-1.3368,3.5050,0.5383,0.0505,0.9054,0.3814,41.0029,0
2026-05-24,-0.5883,3.5050,0.5383,0.0505,0.9054,0.1679,19.0265,0
2026-05-25,0.6228,2.9613,0.5810,0.0526,0.8983,0.2103,24.3363,0
2026-05-26,2.3859,2.9613,0.5810,0.0526,0.8983,0.8057,75.5162,0
2026-05-27,0.0000,2.9613,0.5810,0.0526,0.8983,0.0000,1.3274,0
2026-05-28,-0.0337,2.9613,0.5810,0.0526,0.8983,0.0114,3.0973,0
2026-05-31,-1.5962,2.9613,0.5810,0.0526,0.8983,0.5390,57.6696,0
2026-06-01,0.9540,2.9613,0.5810,0.0526,0.8983,0.3222,35.9882,0
2026-06-02,-1.5033,2.9613,0.5810,0.0526,0.8983,0.5076,54.4248,0
2026-06-03,0.9251,2.9613,0.5810,0.0526,0.8983,0.3124,34.8083,0
2026-06-04,0.8152,2.9613,0.5810,0.0526,0.8983,0.2753,30.5310,0
2026-06-07,0.6071,2.9613,0.5810,0.0526,0.8983,0.2050,23.5988,0
2026-06-08,-2.4163,2.9613,0.5810,0.0526,0.8983,0.8160,75.8112,0
2026-06-09,1.7415,2.9613,0.5810,0.0526,0.8983,0.5881,62.6844,0
2026-06-10,-1.8794,2.9613,0.5810,0.0526,0.8983,0.6347,67.2566,0
2026-06-11,0.5504,2.9613,0.5810,0.0526,0.8983,0.1859,21.5339,0
2026-06-14,2.2389,2.9613,0.5810,0.0526,0.8983,0.7560,74.3363,0
2026-06-15,-0.6394,2.9613,0.5810,0.0526,0.8983,0.2159,25.0737,0
2026-06-16,0.6730,2.9613,0.5810,0.0526,0.8983,0.2272,26.2537,0
2026-06-17,0.2010,2.9613,0.5810,0.0526,0.8983,0.0679,8.8496,0
