Date,Log_Return_pct,GARCH_Vol_Forecast,GARCH_Omega,GARCH_Alpha,GARCH_Beta,GARCH_Vol_Surprise,GARCH_Surprise_Score,GARCH_HighVol_Flag
2023-06-05,,,,,,,,0
2023-06-06,3.802740,,,,,,,0
2023-06-07,-3.030535,,,,,,,0
2023-06-08,1.526747,,,,,,,0
2023-06-11,-0.379507,,,,,,,0
2023-06-12,0.757579,,,,,,,0
2023-06-13,2.607224,,,,,,,0
2023-06-14,-2.607224,,,,,,,0
2023-06-15,1.498155,,,,,,,0
2023-06-18,-1.876228,,,,,,,0
2023-06-19,1.503788,,,,,,,0
2023-06-20,0.000000,,,,,,,0
2023-06-21,-1.125715,,,,,,,0
2023-06-22,-1.138532,,,,,,,0
2023-06-25,1.138532,,,,,,,0
2023-06-26,-0.757579,,,,,,,0
2023-06-27,-0.763362,,,,,,,0
2023-06-29,1.142870,,,,,,,0
2023-07-02,1.503788,,,,,,,0
2023-07-03,-1.503788,,,,,,,0
2023-07-04,0.000000,,,,,,,0
2023-07-05,0.378072,,,,,,,0
2023-07-06,-2.677024,,,,,,,0
2023-07-09,-0.778214,,,,,,,0
2023-07-10,0.000000,,,,,,,0
2023-07-11,-0.784318,,,,,,,0
2023-07-12,0.000000,,,,,,,0
2023-07-13,-0.394478,,,,,,,0
2023-07-16,0.787406,,,,,,,0
2023-07-17,-1.183446,,,,,,,0
2023-07-18,0.396040,,,,,,,0
2023-07-19,-0.793655,,,,,,,0
2023-07-20,-0.399202,,,,,,,0
2023-07-23,-1.612938,,,,,,,0
2023-07-24,1.212136,,,,,,,0
2023-07-25,0.400802,,,,,,,0
2023-07-26,-0.803217,,,,,,,0
2023-07-27,-0.404041,,,,,,,0
2023-07-30,0.000000,,,,,,,0
2023-07-31,0.806456,,,,,,,0
2023-08-01,-2.028467,,,,,,,0
2023-08-02,0.408999,,,,,,,0
2023-08-03,0.407333,,,,,,,0
2023-08-06,-1.227009,,,,,,,0
2023-08-07,0.819677,,,,,,,0
2023-08-08,-0.408999,,,,,,,0
2023-08-09,-0.410678,,,,,,,0
2023-08-10,5.989814,,,,,,,0
2023-08-13,-1.169604,,,,,,,0
2023-08-15,5.715841,,,,,,,0
2023-08-16,-1.117330,,,,,,,0
2023-08-17,-2.272825,,,,,,,0
2023-08-20,0.382410,,,,,,,0
2023-08-21,-0.382410,,,,,,,0
2023-08-22,1.520942,,,,,,,0
2023-08-23,0.376648,,,,,,,0
2023-08-24,1.121507,,,,,,,0
2023-08-27,-1.876228,,,,,,,0
2023-08-28,-0.760460,,,,,,,0
2023-08-29,0.000000,,,,,,,0
2023-08-30,-1.151644,,,,,,,0
2023-08-31,0.769235,1.484220,0.934102,0.114109,0.524250,0.518275,52.802360,0
2023-09-03,1.520942,1.484220,0.934102,0.114109,0.524250,1.024741,79.056047,0
2023-09-04,18.232156,1.484220,0.934102,0.114109,0.524250,12.283995,100.000000,0
2023-09-05,5.207915,1.484220,0.934102,0.114109,0.524250,3.508855,98.967552,0
2023-09-06,1.481509,1.484220,0.934102,0.114109,0.524250,0.998173,78.466077,0
2023-09-07,-4.512044,1.484220,0.934102,0.114109,0.524250,3.040009,98.377581,0
2023-09-10,-0.617286,1.484220,0.934102,0.114109,0.524250,0.415899,42.330383,0
2023-09-11,-7.720875,1.484220,0.934102,0.114109,0.524250,5.201973,99.852507,0
2023-09-12,4.575962,1.484220,0.934102,0.114109,0.524250,3.083074,98.525074,0
2023-09-13,-0.641028,1.484220,0.934102,0.114109,0.524250,0.431895,43.657817,0
2023-09-14,4.095060,1.484220,0.934102,0.114109,0.524250,2.759065,97.197640,0
2023-09-17,-2.817088,1.484220,0.934102,0.114109,0.524250,1.898025,93.362832,0
2023-09-19,-3.554494,1.484220,0.934102,0.114109,0.524250,2.394856,95.722714,0
2023-09-20,0.000000,1.484220,0.934102,0.114109,0.524250,0.000000,1.327434,0
2023-09-21,-0.991744,1.484220,0.934102,0.114109,0.524250,0.668192,66.224189,0
2023-09-24,2.298952,1.484220,0.934102,0.114109,0.524250,1.548929,90.265487,0
2023-09-25,-1.967277,1.484220,0.934102,0.114109,0.524250,1.325461,85.693215,0
2023-09-26,-0.664454,1.484220,0.934102,0.114109,0.524250,0.447679,44.837758,0
2023-09-27,-1.342302,1.484220,0.934102,0.114109,0.524250,0.904382,75.663717,0
2023-09-28,-0.677969,1.484220,0.934102,0.114109,0.524250,0.456784,45.427729,0
2023-10-02,1.015237,3.590546,0.112100,0.000000,1.000000,0.282753,29.056047,0
2023-10-03,0.671143,3.590546,0.112100,0.000000,1.000000,0.186920,19.911504,0
2023-10-04,-1.686381,3.590546,0.112100,0.000000,1.000000,0.469672,47.345133,0
2023-10-05,2.353050,3.590546,0.112100,0.000000,1.000000,0.655346,64.896755,0
2023-10-08,-2.353050,3.590546,0.112100,0.000000,1.000000,0.655346,64.749263,0
2023-10-09,-0.682597,3.590546,0.112100,0.000000,1.000000,0.190109,20.353982,0
2023-10-10,10.089852,3.590546,0.112100,0.000000,1.000000,2.810116,97.345133,0
2023-10-11,-1.560094,3.590546,0.112100,0.000000,1.000000,0.434501,43.952802,0
2023-10-12,-2.225847,3.590546,0.112100,0.000000,1.000000,0.619919,62.979351,0
2023-10-15,-0.969313,3.590546,0.112100,0.000000,1.000000,0.269963,28.023599,0
2023-10-16,-0.325204,3.590546,0.112100,0.000000,1.000000,0.090572,10.471976,0
2023-10-17,-1.642073,3.590546,0.112100,0.000000,1.000000,0.457332,45.575221,0
2023-10-18,-0.998344,3.590546,0.112100,0.000000,1.000000,0.278048,28.466077,0
2023-10-19,0.333890,3.590546,0.112100,0.000000,1.000000,0.092991,10.766962,0
2023-10-22,-8.338161,3.590546,0.112100,0.000000,1.000000,2.322254,94.985251,0
2023-10-24,1.795380,3.590546,0.112100,0.000000,1.000000,0.500030,50.294985,0
2023-10-25,-3.993271,3.590546,0.112100,0.000000,1.000000,1.112163,81.710914,0
2023-10-26,1.470615,3.590546,0.112100,0.000000,1.000000,0.409580,41.740413,0
2023-10-29,0.364299,3.590546,0.112100,0.000000,1.000000,0.101461,11.504425,0
2023-10-30,0.362977,3.590546,0.112100,0.000000,1.000000,0.101092,11.356932,0
2023-10-31,0.000000,3.772010,0.103123,0.000000,1.000000,0.000000,1.327434,0
2023-11-01,0.722025,3.772010,0.103123,0.000000,1.000000,0.191416,20.501475,0
2023-11-02,1.073356,3.772010,0.103123,0.000000,1.000000,0.284558,29.351032,0
2023-11-05,3.152625,3.772010,0.103123,0.000000,1.000000,0.835795,74.188791,0
2023-11-06,-0.345423,3.772010,0.103123,0.000000,1.000000,0.091575,10.619469,0
2023-11-07,2.393277,3.772010,0.103123,0.000000,1.000000,0.634483,63.643068,0
2023-11-08,-2.393277,3.772010,0.103123,0.000000,1.000000,0.634483,63.643068,0
2023-11-09,7.977650,3.772010,0.103123,0.000000,1.000000,2.114960,94.247788,0
2023-11-12,-1.286191,3.772010,0.103123,0.000000,1.000000,0.340983,33.775811,0
2023-11-14,-0.649353,3.772010,0.103123,0.000000,1.000000,0.172150,18.731563,0
2023-11-15,-0.982005,3.772010,0.103123,0.000000,1.000000,0.260340,26.991150,0
2023-11-16,1.954460,3.772010,0.103123,0.000000,1.000000,0.518148,52.654867,0
2023-11-19,8.942781,3.772010,0.103123,0.000000,1.000000,2.370827,95.280236,0
2023-11-20,5.732228,3.772010,0.103123,0.000000,1.000000,1.519675,89.675516,0
2023-11-21,-7.218140,3.772010,0.103123,0.000000,1.000000,1.913606,93.510324,0
2023-11-22,0.000000,3.772010,0.103123,0.000000,1.000000,0.000000,1.327434,0
2023-11-23,2.074148,3.772010,0.103123,0.000000,1.000000,0.549879,54.719764,0
2023-11-27,-1.775195,3.772010,0.103123,0.000000,1.000000,0.470623,47.492625,0
2023-11-28,-1.201216,3.772010,0.103123,0.000000,1.000000,0.318455,31.858407,0
2023-11-29,-3.692727,3.772010,0.103123,0.000000,1.000000,0.978981,78.023599,0
2023-11-30,1.246122,3.988821,0.099984,0.000000,1.000000,0.312404,31.563422,0
2023-12-03,0.000000,3.988821,0.099984,0.000000,1.000000,0.000000,1.327434,0
2023-12-04,-0.621120,3.988821,0.099984,0.000000,1.000000,0.155715,17.109145,0
2023-12-05,5.750449,3.988821,0.099984,0.000000,1.000000,1.441642,89.233038,0
2023-12-06,0.586512,3.988821,0.099984,0.000000,1.000000,0.147039,16.371681,0
2023-12-07,-2.068021,3.988821,0.099984,0.000000,1.000000,0.518454,52.949853,0
2023-12-10,-1.201216,3.988821,0.099984,0.000000,1.000000,0.301146,30.678466,0
2023-12-11,-0.606062,3.988821,0.099984,0.000000,1.000000,0.151940,16.666667,0
2023-12-12,-0.304414,3.988821,0.099984,0.000000,1.000000,0.076317,9.292035,0
2023-12-13,-0.305344,3.988821,0.099984,0.000000,1.000000,0.076550,9.439528,0
2023-12-14,-0.921666,3.988821,0.099984,0.000000,1.000000,0.231062,24.188791,0
2023-12-17,15.415068,3.988821,0.099984,0.000000,1.000000,3.864568,99.115044,0
2023-12-18,0.264201,3.988821,0.099984,0.000000,1.000000,0.066235,8.259587,0
2023-12-19,-4.313337,3.988821,0.099984,0.000000,1.000000,1.081357,80.235988,0
2023-12-20,4.313337,3.988821,0.099984,0.000000,1.000000,1.081357,80.088496,0
2023-12-21,-3.217436,3.988821,0.099984,0.000000,1.000000,0.806613,73.451327,0
2023-12-25,-0.820798,3.988821,0.099984,0.000000,1.000000,0.205775,21.976401,0
2023-12-26,-3.922071,3.988821,0.099984,0.000000,1.000000,0.983266,78.171091,0
2023-12-27,-4.979066,3.988821,0.099984,0.000000,1.000000,1.248255,83.923304,0
2023-12-28,4.979066,3.988821,0.099984,0.000000,1.000000,1.248255,84.070796,0
2023-12-31,4.470018,4.297247,0.103911,0.000000,1.000000,1.040205,79.498525,1
2024-01-01,10.125373,4.297247,0.103911,0.000000,1.000000,2.356247,95.132743,1
2024-01-02,-1.995079,4.297247,0.103911,0.000000,1.000000,0.464269,46.312684,1
2024-01-03,-1.522872,4.297247,0.103911,0.000000,1.000000,0.354383,34.513274,1
2024-01-04,-1.546423,4.297247,0.103911,0.000000,1.000000,0.359864,35.103245,1
2024-01-07,2.056628,4.297247,0.103911,0.000000,1.000000,0.478592,48.525074,1
2024-01-08,3.500357,4.297247,0.103911,0.000000,1.000000,0.814558,73.746313,1
2024-01-09,-1.985177,4.297247,0.103911,0.000000,1.000000,0.461965,46.017699,1
2024-01-10,-1.261051,4.297247,0.103911,0.000000,1.000000,0.293455,29.941003,1
2024-01-11,-1.792622,4.297247,0.103911,0.000000,1.000000,0.417156,42.477876,1
2024-01-14,3.053672,4.297247,0.103911,0.000000,1.000000,0.710611,69.616519,1
2024-01-15,-2.025386,4.297247,0.103911,0.000000,1.000000,0.471322,47.787611,1
2024-01-16,-2.067257,4.297247,0.103911,0.000000,1.000000,0.481065,48.967552,1
2024-01-17,0.260756,4.297247,0.103911,0.000000,1.000000,0.060680,7.522124,1
2024-01-18,2.824321,4.297247,0.103911,0.000000,1.000000,0.657240,65.339233,1
2024-01-22,-7.898841,4.297247,0.103911,0.000000,1.000000,1.838117,92.772861,1
2024-01-23,-1.936437,4.297247,0.103911,0.000000,1.000000,0.450623,44.985251,1
2024-01-24,3.566908,4.297247,0.103911,0.000000,1.000000,0.830045,73.893805,1
2024-01-28,0.000000,4.297247,0.103911,0.000000,1.000000,0.000000,1.327434,1
2024-01-29,3.963531,4.297247,0.103911,0.000000,1.000000,0.922342,75.958702,1
2024-01-30,-1.830116,4.407071,0.096920,0.000000,1.000000,0.415268,42.182891,1
2024-01-31,-1.595779,4.407071,0.096920,0.000000,1.000000,0.362095,35.545723,1
2024-02-01,-0.807541,4.407071,0.096920,0.000000,1.000000,0.183238,19.469027,1
2024-02-04,-1.910017,4.407071,0.096920,0.000000,1.000000,0.433398,43.805310,1
2024-02-05,18.094320,4.407071,0.096920,0.000000,1.000000,4.105747,99.262537,1
2024-02-06,5.805201,4.407071,0.096920,0.000000,1.000000,1.317247,85.398230,1
2024-02-07,1.293121,4.407071,0.096920,0.000000,1.000000,0.293420,29.793510,1
2024-02-08,-6.182984,4.407071,0.096920,0.000000,1.000000,1.402969,88.643068,1
2024-02-11,-11.068980,4.407071,0.096920,0.000000,1.000000,2.511641,96.460177,1
2024-02-12,-2.056628,4.407071,0.096920,0.000000,1.000000,0.466665,46.755162,1
2024-02-13,5.064373,4.407071,0.096920,0.000000,1.000000,1.149147,82.743363,1
2024-02-14,2.197891,4.407071,0.096920,0.000000,1.000000,0.498719,50.147493,1
2024-02-15,2.622320,4.407071,0.096920,0.000000,1.000000,0.595026,60.619469,1
2024-02-18,-2.622320,4.407071,0.096920,0.000000,1.000000,0.595026,60.471976,1
2024-02-19,-2.692941,4.407071,0.096920,0.000000,1.000000,0.611050,62.536873,1
2024-02-20,-2.258565,4.407071,0.096920,0.000000,1.000000,0.512487,51.474926,1
2024-02-21,3.246228,4.407071,0.096920,0.000000,1.000000,0.736595,70.943953,1
2024-02-22,-2.236118,4.407071,0.096920,0.000000,1.000000,0.507393,50.884956,1
2024-02-25,-3.580945,4.407071,0.096920,0.000000,1.000000,0.812545,73.598820,1
2024-02-26,-1.574836,4.407071,0.096920,0.000000,1.000000,0.357343,34.660767,1
2024-02-27,-3.226086,4.827773,0.107689,0.000000,1.000000,0.668235,66.371681,1
2024-02-28,0.272851,4.827773,0.107689,0.000000,1.000000,0.056517,6.784661,1
2024-02-29,4.267314,4.827773,0.107689,0.000000,1.000000,0.883909,75.368732,1
2024-03-03,2.322685,4.827773,0.107689,0.000000,1.000000,0.481109,49.115044,1
2024-03-04,-1.025650,4.827773,0.107689,0.000000,1.000000,0.212448,23.008850,1
2024-03-05,-2.876015,4.827773,0.107689,0.000000,1.000000,0.595723,61.061947,1
2024-03-06,-0.531916,4.827773,0.107689,0.000000,1.000000,0.110178,12.389381,1
2024-03-10,-2.977216,4.827773,0.107689,0.000000,1.000000,0.616685,62.831858,1
2024-03-11,-7.707094,4.827773,0.107689,0.000000,1.000000,1.596408,91.150442,1
2024-03-12,-8.998315,4.827773,0.107689,0.000000,1.000000,1.863865,92.920354,1
2024-03-13,2.247286,4.827773,0.107689,0.000000,1.000000,0.465491,46.460177,1
2024-03-14,0.947874,4.827773,0.107689,0.000000,1.000000,0.196338,21.091445,1
2024-03-17,0.313972,4.827773,0.107689,0.000000,1.000000,0.065035,7.964602,1
2024-03-18,-3.834336,4.827773,0.107689,0.000000,1.000000,0.794225,73.008850,1
2024-03-19,-2.975426,4.827773,0.107689,0.000000,1.000000,0.616314,62.684366,1
2024-03-20,7.434764,4.827773,0.107689,0.000000,1.000000,1.539999,89.970501,1
2024-03-21,-1.886848,4.827773,0.107689,0.000000,1.000000,0.390832,39.380531,1
2024-03-25,-1.600034,4.827773,0.107689,0.000000,1.000000,0.331423,32.890855,1
2024-03-26,-4.621284,4.827773,0.107689,0.000000,1.000000,0.957229,76.548673,1
2024-03-27,-1.018685,4.827773,0.107689,0.000000,1.000000,0.211005,22.418879,1
2024-03-31,9.437894,4.917061,0.101323,0.000000,1.000000,1.919418,93.657817,1
2024-04-01,3.058342,4.917061,0.101323,0.000000,1.000000,0.621986,63.126844,1
2024-04-02,4.130381,4.917061,0.101323,0.000000,1.000000,0.840010,74.336283,1
2024-04-03,12.226878,4.917061,0.101323,0.000000,1.000000,2.486623,96.165192,1
2024-04-04,6.437866,4.917061,0.101323,0.000000,1.000000,1.309292,85.250737,1
2024-04-07,-5.420046,4.917061,0.101323,0.000000,1.000000,1.102294,81.120944,1
2024-04-08,-1.273903,4.917061,0.101323,0.000000,1.000000,0.259078,26.696165,1
2024-04-09,-0.772205,4.917061,0.101323,0.000000,1.000000,0.157046,17.256637,1
2024-04-11,-2.353050,4.917061,0.101323,0.000000,1.000000,0.478548,48.377581,1
2024-04-14,1.052641,4.917061,0.101323,0.000000,1.000000,0.214079,23.156342,1
2024-04-15,9.483410,4.917061,0.101323,0.000000,1.000000,1.928675,93.805310,1
2024-04-17,5.331506,4.917061,0.101323,0.000000,1.000000,1.084287,80.530973,1
2024-04-18,-0.225989,4.917061,0.101323,0.000000,1.000000,0.045960,5.457227,1
2024-04-21,1.571301,4.917061,0.101323,0.000000,1.000000,0.319561,32.005900,1
2024-04-22,-1.797801,4.917061,0.101323,0.000000,1.000000,0.365625,35.693215,1
2024-04-23,-0.227015,4.917061,0.101323,0.000000,1.000000,0.046169,5.604720,1
2024-04-24,-2.999071,4.917061,0.101323,0.000000,1.000000,0.609932,62.389381,1
2024-04-25,1.164158,4.917061,0.101323,0.000000,1.000000,0.236759,25.073746,1
2024-04-28,0.461895,4.917061,0.101323,0.000000,1.000000,0.093937,11.061947,1
2024-04-29,1.600034,4.917061,0.101323,0.000000,1.000000,0.325405,32.595870,1
2024-05-01,3.782431,5.099608,0.100399,0.000000,1.000000,0.741710,71.091445,1
2024-05-02,-1.318700,5.099608,0.100399,0.000000,1.000000,0.258589,26.106195,1
2024-05-05,-0.665929,5.099608,0.100399,0.000000,1.000000,0.130584,14.454277,1
2024-05-06,-1.571301,5.099608,0.100399,0.000000,1.000000,0.308122,31.268437,1
2024-05-07,-0.226501,5.099608,0.100399,0.000000,1.000000,0.044415,4.867257,1
2024-05-08,-5.835962,5.099608,0.100399,0.000000,1.000000,1.144394,82.595870,1
2024-05-09,-0.966191,5.099608,0.100399,0.000000,1.000000,0.189464,20.206490,1
2024-05-12,-1.960847,5.099608,0.100399,0.000000,1.000000,0.384509,36.873156,1
2024-05-13,6.469321,5.099608,0.100399,0.000000,1.000000,1.268592,84.218289,1
2024-05-14,-0.232288,5.099608,0.100399,0.000000,1.000000,0.045550,5.309735,1
2024-05-15,-2.115238,5.099608,0.100399,0.000000,1.000000,0.414784,42.035398,1
2024-05-16,1.882409,5.099608,0.100399,0.000000,1.000000,0.369128,35.988201,1
2024-05-20,-0.936775,5.099608,0.100399,0.000000,1.000000,0.183695,19.764012,1
2024-05-21,-1.183446,5.099608,0.100399,0.000000,1.000000,0.232066,24.336283,1
2024-05-22,-1.438874,5.099608,0.100399,0.000000,1.000000,0.282154,28.908555,1
2024-05-23,-0.727276,5.099608,0.100399,0.000000,1.000000,0.142614,15.929204,1
2024-05-26,-1.470615,5.099608,0.100399,0.000000,1.000000,0.288378,29.498525,1
2024-05-27,-1.743506,5.099608,0.100399,0.000000,1.000000,0.341890,33.923304,1
2024-05-28,3.941397,5.099608,0.100399,0.000000,1.000000,0.772882,72.713864,1
2024-05-29,-2.941389,5.099608,0.100399,0.000000,1.000000,0.576787,57.964602,1
2024-05-30,-2.010118,4.582489,0.147359,0.000000,0.994636,0.438652,44.247788,1
2024-06-02,0.506330,4.582489,0.147359,0.000000,0.994636,0.110492,12.536873,1
2024-06-03,-7.605236,4.582489,0.147359,0.000000,0.994636,1.659630,92.182891,1
2024-06-04,-0.272851,4.582489,0.147359,0.000000,0.994636,0.059542,7.227139,1
2024-06-05,6.607423,4.582489,0.147359,0.000000,0.994636,1.441885,89.380531,1
2024-06-06,2.275699,4.582489,0.147359,0.000000,0.994636,0.496608,50.000000,1
2024-06-09,1.044526,4.582489,0.147359,0.000000,0.994636,0.227939,24.041298,1
2024-06-10,0.000000,4.582489,0.147359,0.000000,0.994636,0.000000,1.327434,1
2024-06-11,-1.194638,4.582489,0.147359,0.000000,0.994636,0.260696,27.138643,1
2024-06-12,-0.300903,4.582489,0.147359,0.000000,0.994636,0.065664,8.112094,1
2024-06-13,0.550966,4.582489,0.147359,0.000000,0.994636,0.120233,13.716814,1
2024-06-17,-1.967277,4.582489,0.147359,0.000000,0.994636,0.429303,43.362832,1
2024-06-18,-2.319094,4.582489,0.147359,0.000000,0.994636,0.506077,50.737463,1
2024-06-19,-0.470343,4.582489,0.147359,0.000000,0.994636,0.102639,11.651917,1
2024-06-20,1.919644,4.582489,0.147359,0.000000,0.994636,0.418909,42.625369,1
2024-06-23,0.000000,4.582489,0.147359,0.000000,0.994636,0.000000,1.327434,1
2024-06-24,-0.722025,4.582489,0.147359,0.000000,0.994636,0.157562,17.404130,1
2024-06-25,1.081092,4.582489,0.147359,0.000000,0.994636,0.235918,24.926254,1
2024-06-26,0.204604,4.582489,0.147359,0.000000,0.994636,0.044649,5.162242,1
2024-06-27,0.204186,4.582489,0.147359,0.000000,0.994636,0.044558,5.014749,1
2024-06-30,4.438525,4.219614,0.188841,0.000000,0.990010,1.051879,79.646018,1
2024-07-01,3.168772,4.219614,0.188841,0.000000,0.990010,0.750963,71.828909,1
2024-07-02,-1.092907,4.219614,0.188841,0.000000,0.990010,0.259006,26.548673,1
2024-07-03,-3.154836,4.219614,0.188841,0.000000,0.990010,0.747660,71.533923,1
2024-07-04,3.583919,4.219614,0.188841,0.000000,0.990010,0.849348,74.483776,1
2024-07-07,0.000000,4.219614,0.188841,0.000000,0.990010,0.000000,1.327434,1
2024-07-08,-0.238152,4.219614,0.188841,0.000000,0.990010,0.056439,6.637168,1
2024-07-09,-1.683137,4.219614,0.188841,0.000000,0.990010,0.398884,40.412979,1
2024-07-10,-1.367209,4.219614,0.188841,0.000000,0.990010,0.324013,32.448378,1
2024-07-11,3.668365,4.219614,0.188841,0.000000,0.990010,0.869360,74.926254,1
2024-07-14,-1.769111,4.219614,0.188841,0.000000,0.990010,0.419259,42.772861,1
2024-07-15,-2.243997,4.219614,0.188841,0.000000,0.990010,0.531801,53.834808,1
2024-07-17,0.981844,4.219614,0.188841,0.000000,0.990010,0.232686,24.483776,1
2024-07-18,-1.973424,4.219614,0.188841,0.000000,0.990010,0.467679,46.902655,1
2024-07-21,-1.152606,4.219614,0.188841,0.000000,0.990010,0.273154,28.171091,1
2024-07-22,-0.454661,4.219614,0.188841,0.000000,0.990010,0.107749,11.946903,1
2024-07-23,8.953982,4.219614,0.188841,0.000000,0.990010,2.121991,94.395280,1
2024-07-24,0.646057,4.219614,0.188841,0.000000,0.990010,0.153108,16.814159,1
2024-07-25,-2.279699,4.219614,0.188841,0.000000,0.990010,0.540262,54.424779,1
2024-07-28,-1.374104,4.219614,0.188841,0.000000,0.990010,0.325647,32.743363,1
2024-07-29,0.807797,4.037922,0.212583,0.000000,0.987234,0.200053,21.386431,0
2024-07-30,-1.429958,4.037922,0.212583,0.000000,0.987234,0.354132,34.365782,0
2024-07-31,-1.792249,4.037922,0.212583,0.000000,0.987234,0.443854,44.542773,0
2024-08-01,1.503788,4.037922,0.212583,0.000000,0.987234,0.372416,36.135693,0
2024-08-04,-4.530563,4.037922,0.212583,0.000000,0.987234,1.122004,82.153392,0
2024-08-05,-2.293094,4.037922,0.212583,0.000000,0.987234,0.567890,56.637168,0
2024-08-06,4.534782,4.037922,0.212583,0.000000,0.987234,1.123048,82.300885,0
2024-08-07,-0.890654,4.037922,0.212583,0.000000,0.987234,0.220572,23.451327,0
2024-08-08,8.157083,4.037922,0.212583,0.000000,0.987234,2.020119,94.100295,0
2024-08-11,-2.082926,4.037922,0.212583,0.000000,0.987234,0.515841,52.064897,0
2024-08-12,-5.134253,4.037922,0.212583,0.000000,0.987234,1.271509,84.513274,0
2024-08-13,-1.838561,4.037922,0.212583,0.000000,0.987234,0.455324,45.280236,0
2024-08-15,0.848944,4.037922,0.212583,0.000000,0.987234,0.210243,22.271386,0
2024-08-18,10.739723,4.037922,0.212583,0.000000,0.987234,2.659715,96.902655,0
2024-08-19,4.966177,4.037922,0.212583,0.000000,0.987234,1.229884,83.333333,0
2024-08-20,-2.104437,4.037922,0.212583,0.000000,0.987234,0.521168,53.097345,0
2024-08-21,-1.883955,4.037922,0.212583,0.000000,0.987234,0.466565,46.607670,0
2024-08-22,-1.605028,4.037922,0.212583,0.000000,0.987234,0.397489,40.265487,0
2024-08-25,1.737624,4.037922,0.212583,0.000000,0.987234,0.430326,43.510324,0
2024-08-26,-5.027094,4.037922,0.212583,0.000000,0.987234,1.244970,83.628319,0
2024-08-27,-2.587771,4.056191,0.211311,0.000000,0.987373,0.637980,63.864307,1
2024-08-28,-1.198768,4.056191,0.211311,0.000000,0.987373,0.295540,30.088496,1
2024-08-29,1.198768,4.056191,0.211311,0.000000,0.987373,0.295540,30.235988,1
2024-09-01,5.381632,4.056191,0.211311,0.000000,0.987373,1.326770,85.840708,1
2024-09-02,1.967863,4.056191,0.211311,0.000000,0.987373,0.485150,49.410029,1
2024-09-03,-2.556766,4.056191,0.211311,0.000000,0.987373,0.630337,63.421829,1
2024-09-04,-0.136395,4.056191,0.211311,0.000000,0.987373,0.033626,3.834808,1
2024-09-05,-0.045506,4.056191,0.211311,0.000000,0.987373,0.011219,2.949853,1
2024-09-08,-0.822674,4.056191,0.211311,0.000000,0.987373,0.202819,21.681416,1
2024-09-09,0.731599,4.056191,0.211311,0.000000,0.987373,0.180366,19.321534,1
2024-09-10,0.363802,4.056191,0.211311,0.000000,0.987373,0.089691,10.324484,1
2024-09-11,-2.156541,4.056191,0.211311,0.000000,0.987373,0.531667,53.687316,1
2024-09-12,1.838287,4.056191,0.211311,0.000000,0.987373,0.453205,45.132743,1
2024-09-15,-0.593745,4.056191,0.211311,0.000000,0.987373,0.146380,16.224189,1
2024-09-16,-0.229305,4.056191,0.211311,0.000000,0.987373,0.056532,6.932153,1
2024-09-17,-2.935221,4.056191,0.211311,0.000000,0.987373,0.723640,70.353982,1
2024-09-18,-2.975267,4.056191,0.211311,0.000000,0.987373,0.733513,70.648968,1
2024-09-19,2.691176,4.056191,0.211311,0.000000,0.987373,0.663474,65.634218,1
2024-09-22,-0.857148,4.056191,0.211311,0.000000,0.987373,0.211318,22.861357,1
2024-09-23,-0.191479,4.056191,0.211311,0.000000,0.987373,0.047207,5.752212,1
2024-09-24,-4.158095,3.747765,0.243180,0.002981,0.980550,1.109486,81.268437,0
2024-09-25,0.845566,3.747765,0.243180,0.002981,0.980550,0.225619,23.893805,0
2024-09-26,-0.148699,3.747765,0.243180,0.002981,0.980550,0.039677,4.277286,0
2024-09-29,-0.049615,3.747765,0.243180,0.002981,0.980550,0.013239,3.392330,0
2024-09-30,2.741239,3.747765,0.243180,0.002981,0.980550,0.731433,70.501475,0
2024-10-02,-2.542924,3.747765,0.243180,0.002981,0.980550,0.678518,68.289086,0
2024-10-03,-2.914779,3.747765,0.243180,0.002981,0.980550,0.777738,72.861357,0
2024-10-06,-4.377979,3.747765,0.243180,0.002981,0.980550,1.168157,83.038348,0
2024-10-07,2.680844,3.747765,0.243180,0.002981,0.980550,0.715318,70.058997,0
2024-10-08,5.056689,3.747765,0.243180,0.002981,0.980550,1.349254,88.053097,0
2024-10-09,0.147820,3.747765,0.243180,0.002981,0.980550,0.039442,4.129794,0
2024-10-10,-1.938912,3.747765,0.243180,0.002981,0.980550,0.517352,52.212389,0
2024-10-13,-0.201005,3.747765,0.243180,0.002981,0.980550,0.053633,6.489676,0
2024-10-14,-1.520556,3.747765,0.243180,0.002981,0.980550,0.405723,41.445428,0
2024-10-15,-1.595915,3.747765,0.243180,0.002981,0.980550,0.425831,43.215339,0
2024-10-16,-1.727339,3.747765,0.243180,0.002981,0.980550,0.460899,45.870206,0
2024-10-17,0.631581,3.747765,0.243180,0.002981,0.980550,0.168522,18.584071,0
2024-10-20,-1.799943,3.747765,0.243180,0.002981,0.980550,0.480271,48.820059,0
2024-10-21,-3.644679,3.747765,0.243180,0.002981,0.980550,0.972494,77.581121,0
2024-10-22,-2.980260,3.747765,0.243180,0.002981,0.980550,0.795210,73.156342,0
2024-10-23,1.810004,3.497666,0.257608,0.007307,0.974025,0.517489,52.507375,0
2024-10-24,-2.497292,3.497666,0.257608,0.007307,0.974025,0.713988,69.911504,0
2024-10-27,-0.981816,3.497666,0.257608,0.007307,0.974025,0.280706,28.613569,0
2024-10-28,-0.815855,3.497666,0.257608,0.007307,0.974025,0.233257,24.631268,0
2024-10-29,3.563595,3.497666,0.257608,0.007307,0.974025,1.018850,78.761062,0
2024-10-30,1.401761,3.497666,0.257608,0.007307,0.974025,0.400770,40.560472,0
2024-10-31,3.608921,3.497666,0.257608,0.007307,0.974025,1.031808,79.203540,0
2024-11-03,3.119470,3.497666,0.257608,0.007307,0.974025,0.891872,75.516224,0
2024-11-04,0.881063,3.497666,0.257608,0.007307,0.974025,0.251900,25.811209,0
2024-11-05,0.463321,3.497666,0.257608,0.007307,0.974025,0.132466,14.601770,0
2024-11-06,-1.971018,3.497666,0.257608,0.007307,0.974025,0.563524,56.047198,0
2024-11-07,-1.690479,3.497666,0.257608,0.007307,0.974025,0.483316,49.262537,0
2024-11-10,1.638082,3.497666,0.257608,0.007307,0.974025,0.468336,47.197640,0
2024-11-11,-4.557208,3.497666,0.257608,0.007307,0.974025,1.302928,84.955752,0
2024-11-12,-5.641654,3.497666,0.257608,0.007307,0.974025,1.612977,91.887906,0
2024-11-13,2.010984,3.497666,0.257608,0.007307,0.974025,0.574950,57.522124,0
2024-11-17,-3.826554,3.497666,0.257608,0.007307,0.974025,1.094031,80.973451,0
2024-11-18,0.236128,3.497666,0.257608,0.007307,0.974025,0.067510,8.702065,0
2024-11-20,-3.785372,3.497666,0.257608,0.007307,0.974025,1.082257,80.383481,0
2024-11-21,2.300344,3.497666,0.257608,0.007307,0.974025,0.657680,65.486726,0
2024-11-24,2.599083,3.394145,0.260819,0.009740,0.970643,0.765755,72.566372,0
2024-11-25,0.000000,3.394145,0.260819,0.009740,0.970643,0.000000,1.327434,0
2024-11-26,1.044093,3.394145,0.260819,0.009740,0.970643,0.307616,30.973451,0
2024-11-27,2.225484,3.394145,0.260819,0.009740,0.970643,0.655683,65.191740,0
2024-11-28,0.954795,3.394145,0.260819,0.009740,0.970643,0.281307,28.761062,0
2024-12-01,5.280138,3.394145,0.260819,0.009740,0.970643,1.555661,90.707965,0
2024-12-02,0.686925,3.394145,0.260819,0.009740,0.970643,0.202385,21.533923,0
2024-12-03,0.052645,3.394145,0.260819,0.009740,0.970643,0.015511,3.539823,0
2024-12-04,1.773651,3.394145,0.260819,0.009740,0.970643,0.522562,53.244838,0
2024-12-05,-0.987277,3.394145,0.260819,0.009740,0.970643,0.290877,29.646018,0
2024-12-08,2.831592,3.394145,0.260819,0.009740,0.970643,0.834258,74.041298,0
2024-12-09,-0.713197,3.394145,0.260819,0.009740,0.970643,0.210126,22.123894,0
2024-12-10,-1.338157,3.394145,0.260819,0.009740,0.970643,0.394254,39.528024,0
2024-12-11,-0.467412,3.394145,0.260819,0.009740,0.970643,0.137711,15.044248,0
2024-12-12,-1.099200,3.394145,0.260819,0.009740,0.970643,0.323852,32.300885,0
2024-12-15,2.904769,3.394145,0.260819,0.009740,0.970643,0.855817,74.631268,0
2024-12-16,-3.168273,3.394145,0.260819,0.009740,0.970643,0.933453,76.253687,0
2024-12-17,-1.435050,3.394145,0.260819,0.009740,0.970643,0.422802,43.067847,0
2024-12-18,0.693521,3.394145,0.260819,0.009740,0.970643,0.204329,21.828909,0
2024-12-19,-0.319489,3.394145,0.260819,0.009740,0.970643,0.094129,11.209440,0
2024-12-22,-3.197238,3.144410,0.255412,0.013289,0.966371,1.016801,78.613569,0
2024-12-23,-1.051767,3.144410,0.255412,0.013289,0.966371,0.334488,33.333333,0
2024-12-25,-1.062947,3.144410,0.255412,0.013289,0.966371,0.338043,33.628319,0
2024-12-26,0.280820,3.144410,0.255412,0.013289,0.966371,0.089308,10.176991,0
2024-12-29,-1.128044,3.144410,0.255412,0.013289,0.966371,0.358746,34.955752,0
2024-12-30,3.072009,3.144410,0.255412,0.013289,0.966371,0.976975,77.876106,0
2024-12-31,0.000000,3.144410,0.255412,0.013289,0.966371,0.000000,1.327434,0
2025-01-01,1.852914,3.144410,0.255412,0.013289,0.966371,0.589272,59.587021,0
2025-01-02,-1.195017,3.144410,0.255412,0.013289,0.966371,0.380045,36.725664,0
2025-01-05,-4.813464,3.144410,0.255412,0.013289,0.966371,1.530800,89.823009,0
2025-01-06,3.216074,3.144410,0.255412,0.013289,0.966371,1.022791,78.908555,0
2025-01-07,0.000000,3.144410,0.255412,0.013289,0.966371,0.000000,1.327434,0
2025-01-08,0.277239,3.144410,0.255412,0.013289,0.966371,0.088169,10.029499,0
2025-01-09,-4.879016,3.144410,0.255412,0.013289,0.966371,1.551648,90.560472,0
2025-01-12,-1.818765,3.144410,0.255412,0.013289,0.966371,0.578412,58.259587,0
2025-01-13,0.707968,3.144410,0.255412,0.013289,0.966371,0.225151,23.746313,0
2025-01-14,0.527706,3.144410,0.255412,0.013289,0.966371,0.167823,18.289086,0
2025-01-15,0.524936,3.144410,0.255412,0.013289,0.966371,0.166942,18.141593,0
2025-01-16,-1.819833,3.144410,0.255412,0.013289,0.966371,0.578752,58.554572,0
2025-01-19,1.060705,3.144410,0.255412,0.013289,0.966371,0.337330,33.480826,0
2025-01-20,-3.277028,3.007852,0.245268,0.015799,0.963886,1.089491,80.825959,0
2025-01-21,0.483385,3.007852,0.245268,0.015799,0.963886,0.160708,17.551622,0
2025-01-22,-0.180996,3.007852,0.245268,0.015799,0.963886,0.060174,7.374631,0
2025-01-23,-8.964990,3.007852,0.245268,0.015799,0.963886,2.980529,98.082596,0
2025-01-26,-4.043678,3.007852,0.245268,0.015799,0.963886,1.344374,87.168142,0
2025-01-27,5.681448,3.007852,0.245268,0.015799,0.963886,1.888872,93.215339,0
2025-01-28,4.385832,3.007852,0.245268,0.015799,0.963886,1.458127,89.528024,0
2025-01-29,10.330617,3.007852,0.245268,0.015799,0.963886,3.434549,98.820059,0
2025-01-30,8.850587,3.007852,0.245268,0.015799,0.963886,2.942494,97.640118,0
2025-01-31,2.983786,3.007852,0.245268,0.015799,0.963886,0.991999,78.318584,0
2025-02-02,-2.267671,3.007852,0.245268,0.015799,0.963886,0.753917,72.123894,0
2025-02-03,1.417028,3.007852,0.245268,0.015799,0.963886,0.471110,47.640118,0
2025-02-04,-3.372829,3.007852,0.245268,0.015799,0.963886,1.121341,82.005900,0
2025-02-05,6.001296,3.007852,0.245268,0.015799,0.963886,1.995210,93.952802,0
2025-02-06,-4.658994,3.007852,0.245268,0.015799,0.963886,1.548944,90.412979,0
2025-02-09,-0.772205,3.007852,0.245268,0.015799,0.963886,0.256730,25.958702,0
2025-02-10,4.694276,3.007852,0.245268,0.015799,0.963886,1.560674,90.855457,0
2025-02-11,9.135761,3.007852,0.245268,0.015799,0.963886,3.037304,98.230088,0
2025-02-12,1.739950,3.007852,0.245268,0.015799,0.963886,0.578469,58.407080,0
2025-02-13,-0.799294,3.007852,0.245268,0.015799,0.963886,0.265736,27.876106,0
2025-02-16,0.400445,3.829471,0.286500,0.016567,0.962017,0.104569,11.799410,0
2025-02-17,1.891413,3.829471,0.286500,0.016567,0.962017,0.493910,49.705015,0
2025-02-18,9.590418,3.829471,0.286500,0.016567,0.962017,2.504371,96.312684,0
2025-02-19,7.141801,3.829471,0.286500,0.016567,0.962017,1.864958,93.067847,0
2025-02-20,10.786383,3.829471,0.286500,0.016567,0.962017,2.816677,97.492625,0
2025-02-23,18.221125,3.829471,0.286500,0.016567,0.962017,4.758131,99.705015,0
2025-02-24,-5.149653,3.829471,0.286500,0.016567,0.962017,1.344743,87.315634,0
2025-02-26,-5.153784,3.829471,0.286500,0.016567,0.962017,1.345821,87.610619,0
2025-02-27,-5.143812,3.829471,0.286500,0.016567,0.962017,1.343217,86.578171,0
2025-03-02,-5.151353,3.829471,0.286500,0.016567,0.962017,1.345187,87.463127,0
2025-03-03,-5.145382,3.829471,0.286500,0.016567,0.962017,1.343627,86.873156,0
2025-03-04,-5.161255,3.829471,0.286500,0.016567,0.962017,1.347772,87.758112,0
2025-03-05,-5.164924,3.829471,0.286500,0.016567,0.962017,1.348730,87.905605,0
2025-03-06,4.863946,3.829471,0.286500,0.016567,0.962017,1.270135,84.365782,0
2025-03-09,-5.141229,3.829471,0.286500,0.016567,0.962017,1.342543,86.430678,0
2025-03-10,-5.169004,3.829471,0.286500,0.016567,0.962017,1.349796,88.200590,0
2025-03-11,-0.544504,3.829471,0.286500,0.016567,0.962017,0.142188,15.486726,0
2025-03-12,4.877016,3.829471,0.286500,0.016567,0.962017,1.273548,84.660767,0
2025-03-16,-5.129329,3.829471,0.286500,0.016567,0.962017,1.339435,86.135693,0
2025-03-17,0.000000,3.829471,0.286500,0.016567,0.962017,0.000000,1.327434,0
2025-03-18,6.952606,5.063566,0.349333,0.033785,0.944254,1.373065,88.348083,1
2025-03-19,4.867794,5.063566,0.349333,0.033785,0.944254,0.961337,76.843658,1
2025-03-20,4.855854,5.063566,0.349333,0.033785,0.944254,0.958979,76.696165,1
2025-03-23,4.868834,5.063566,0.349333,0.033785,0.944254,0.961542,76.991150,1
2025-03-24,4.869318,5.063566,0.349333,0.033785,0.944254,0.961638,77.138643,1
2025-03-25,1.952999,5.063566,0.349333,0.033785,0.944254,0.385696,37.168142,1
2025-03-26,1.977776,5.063566,0.349333,0.033785,0.944254,0.390590,39.233038,1
2025-03-27,1.969901,5.063566,0.349333,0.033785,0.944254,0.389034,38.348083,1
2025-03-31,1.961735,5.063566,0.349333,0.033785,0.944254,0.387422,38.053097,1
2025-04-01,1.953303,5.063566,0.349333,0.033785,0.944254,0.385756,37.463127,1
2025-04-02,1.973366,5.063566,0.349333,0.033785,0.944254,0.389719,38.938053,1
2025-04-03,1.963358,5.063566,0.349333,0.033785,0.944254,0.387742,38.200590,1
2025-04-06,1.953187,5.063566,0.349333,0.033785,0.944254,0.385734,37.315634,1
2025-04-07,1.969968,5.063566,0.349333,0.033785,0.944254,0.389048,38.495575,1
2025-04-08,1.958480,5.063566,0.349333,0.033785,0.944254,0.386779,37.610619,1
2025-04-10,1.972969,5.063566,0.349333,0.033785,0.944254,0.389640,38.790560,1
2025-04-14,1.960341,5.063566,0.349333,0.033785,0.944254,0.387146,37.905605,1
2025-04-15,1.972750,5.063566,0.349333,0.033785,0.944254,0.389597,38.643068,1
2025-04-16,1.959145,5.063566,0.349333,0.033785,0.944254,0.386910,37.758112,1
2025-04-20,-2.034305,5.063566,0.349333,0.033785,0.944254,0.401753,40.855457,1
2025-04-21,-2.025386,3.625402,0.474530,0.037025,0.929226,0.558665,55.014749,0
2025-04-22,-2.041151,3.625402,0.474530,0.037025,0.929226,0.563014,55.899705,0
2025-04-23,-2.030393,3.625402,0.474530,0.037025,0.929226,0.560046,55.309735,0
2025-04-24,-2.045281,3.625402,0.474530,0.037025,0.929226,0.564153,56.342183,0
2025-04-27,-2.032479,3.625402,0.474530,0.037025,0.929226,0.560622,55.604720,0
2025-04-28,-2.046322,3.625402,0.474530,0.037025,0.929226,0.564440,56.489676,0
2025-04-29,-2.031253,3.625402,0.474530,0.037025,0.929226,0.560283,55.457227,0
2025-05-01,-2.043867,3.625402,0.474530,0.037025,0.929226,0.563763,56.194690,0
2025-05-04,-5.144856,3.625402,0.474530,0.037025,0.929226,1.419113,88.938053,0
2025-05-05,-5.129329,3.625402,0.474530,0.037025,0.929226,1.414831,88.790560,0
2025-05-06,0.781508,3.625402,0.474530,0.037025,0.929226,0.215565,23.303835,0
2025-05-07,4.843485,3.625402,0.474530,0.037025,0.929226,1.335986,85.988201,0
2025-05-08,4.796576,3.625402,0.474530,0.037025,0.929226,1.323047,85.545723,0
2025-05-11,4.857975,3.625402,0.474530,0.037025,0.929226,1.339982,86.283186,0
2025-05-12,4.873672,3.625402,0.474530,0.037025,0.929226,1.344312,87.020649,0
2025-05-13,0.851522,3.625402,0.474530,0.037025,0.929226,0.234877,24.778761,0
2025-05-14,-2.034331,3.625402,0.474530,0.037025,0.929226,0.561133,55.752212,0
2025-05-15,1.396371,3.625402,0.474530,0.037025,0.929226,0.385163,37.020649,0
2025-05-18,0.000000,3.625402,0.474530,0.037025,0.929226,0.000000,1.327434,0
2025-05-19,1.980263,3.625402,0.474530,0.037025,0.929226,0.546219,54.572271,0
2025-05-20,1.967446,3.413715,0.531419,0.039783,0.921403,0.576336,57.817109,0
2025-05-21,1.979760,3.413715,0.531419,0.039783,0.921403,0.579943,58.997050,0
2025-05-22,1.965971,3.413715,0.531419,0.039783,0.921403,0.575904,57.669617,0
2025-05-25,1.976397,3.413715,0.531419,0.039783,0.921403,0.578958,58.702065,0
2025-05-26,1.961785,3.413715,0.531419,0.039783,0.921403,0.574678,57.374631,0
2025-05-27,1.970507,3.413715,0.531419,0.039783,0.921403,0.577233,58.112094,0
2025-05-28,1.977985,3.413715,0.531419,0.039783,0.921403,0.579423,58.849558,0
2025-05-29,-2.024454,3.413715,0.531419,0.039783,0.921403,0.593035,59.882006,0
2025-06-01,-2.042564,3.413715,0.531419,0.039783,0.921403,0.598341,61.799410,0
2025-06-02,-2.036730,3.413715,0.531419,0.039783,0.921403,0.596632,61.209440,0
2025-06-03,-2.029658,3.413715,0.531419,0.039783,0.921403,0.594560,60.176991,0
2025-06-04,-2.021279,3.413715,0.531419,0.039783,0.921403,0.592105,59.734513,0
2025-06-05,-2.037249,3.413715,0.531419,0.039783,0.921403,0.596784,61.356932,0
2025-06-08,1.961596,3.413715,0.531419,0.039783,0.921403,0.574622,57.227139,0
2025-06-09,-2.038807,3.413715,0.531419,0.039783,0.921403,0.597240,61.504425,0
2025-06-10,-2.028678,3.413715,0.531419,0.039783,0.921403,0.594273,60.029499,0
2025-06-11,-2.043867,3.413715,0.531419,0.039783,0.921403,0.598722,61.946903,0
2025-06-12,-2.031764,3.413715,0.531419,0.039783,0.921403,0.595177,60.914454,0
2025-06-15,-2.045966,3.413715,0.531419,0.039783,0.921403,0.599337,62.094395,0
2025-06-16,-2.031673,3.413715,0.531419,0.039783,0.921403,0.595150,60.766962,0
2025-06-17,-2.044708,3.025099,0.560805,0.043999,0.913316,0.675914,67.846608,0
2025-06-18,-2.027990,3.025099,0.560805,0.043999,0.913316,0.670388,66.814159,0
2025-06-19,-2.039663,3.025099,0.560805,0.043999,0.913316,0.674247,67.551622,0
2025-06-22,-5.129329,3.025099,0.560805,0.043999,0.913316,1.695590,92.330383,0
2025-06-23,1.141782,3.025099,0.560805,0.043999,0.913316,0.377436,36.578171,0
2025-06-24,0.377715,3.025099,0.560805,0.043999,0.913316,0.124860,14.011799,0
2025-06-25,-1.583314,3.025099,0.560805,0.043999,0.913316,0.523392,53.392330,0
2025-06-26,4.828847,3.025099,0.560805,0.043999,0.913316,1.596261,91.002950,0
2025-06-29,4.867430,3.025099,0.560805,0.043999,0.913316,1.609015,91.740413,0
2025-06-30,1.808575,3.025099,0.560805,0.043999,0.913316,0.597856,61.651917,0
2025-07-01,-4.064420,3.025099,0.560805,0.043999,0.913316,1.343566,86.725664,0
2025-07-02,-4.887906,3.025099,0.560805,0.043999,0.913316,1.615784,92.035398,0
2025-07-03,-0.218035,3.025099,0.560805,0.043999,0.913316,0.072075,9.144543,0
2025-07-06,0.124649,3.025099,0.560805,0.043999,0.913316,0.041205,4.719764,0
2025-07-07,-0.343161,3.025099,0.560805,0.043999,0.913316,0.113438,12.831858,0
2025-07-08,-1.829127,3.025099,0.560805,0.043999,0.913316,0.604650,62.241888,0
2025-07-09,-0.638572,3.025099,0.560805,0.043999,0.913316,0.211091,22.713864,0
2025-07-10,1.683381,3.025099,0.560805,0.043999,0.913316,0.556471,54.867257,0
2025-07-13,-0.568542,3.025099,0.560805,0.043999,0.913316,0.187942,20.058997,0
2025-07-14,1.133870,3.025099,0.560805,0.043999,0.913316,0.374821,36.430678,0
2025-07-15,4.859627,3.028105,0.537441,0.043322,0.915044,1.604841,91.445428,0
2025-07-16,4.861968,3.028105,0.537441,0.043322,0.915044,1.605614,91.592920,0
2025-07-17,4.853302,3.028105,0.537441,0.043322,0.915044,1.602752,91.297935,0
2025-07-20,-2.800073,3.028105,0.537441,0.043322,0.915044,0.924695,76.106195,0
2025-07-21,-2.024816,3.028105,0.537441,0.043322,0.915044,0.668674,66.519174,0
2025-07-22,-2.037666,3.028105,0.537441,0.043322,0.915044,0.672918,67.256637,0
2025-07-23,-2.020862,3.028105,0.537441,0.043322,0.915044,0.667369,65.929204,0
2025-07-24,-2.032347,3.028105,0.537441,0.043322,0.915044,0.671161,66.961652,0
2025-07-27,-2.043689,3.028105,0.537441,0.043322,0.915044,0.674907,67.699115,0
2025-07-28,1.953068,3.028105,0.537441,0.043322,0.915044,0.644980,64.011799,0
2025-07-29,-0.120956,3.028105,0.537441,0.043322,0.915044,0.039944,4.424779,0
2025-07-30,1.203022,3.028105,0.537441,0.043322,0.915044,0.397285,40.117994,0
2025-07-31,0.447428,3.028105,0.537441,0.043322,0.915044,0.147758,16.519174,0
2025-08-03,1.974427,3.028105,0.537441,0.043322,0.915044,0.652034,64.454277,0
2025-08-04,1.764326,3.028105,0.537441,0.043322,0.915044,0.582650,59.144543,0
2025-08-05,-2.027292,3.028105,0.537441,0.043322,0.915044,0.669492,66.666667,0
2025-08-06,-2.039379,3.028105,0.537441,0.043322,0.915044,0.673484,67.404130,0
2025-08-07,-1.473933,3.028105,0.537441,0.043322,0.915044,0.486751,49.557522,0
2025-08-10,0.000000,3.028105,0.537441,0.043322,0.915044,0.000000,1.327434,0
2025-08-11,-2.020271,3.028105,0.537441,0.043322,0.915044,0.667173,65.781711,0
2025-08-12,-1.998817,2.908658,0.519283,0.043890,0.914983,0.687196,68.584071,0
2025-08-13,-2.039586,2.908658,0.519283,0.043890,0.914983,0.701212,69.174041,0
2025-08-17,-2.049185,2.908658,0.519283,0.043890,0.914983,0.704512,69.321534,0
2025-08-18,1.952551,2.908658,0.519283,0.043890,0.914983,0.671289,67.109145,0
2025-08-19,1.820264,2.908658,0.519283,0.043890,0.914983,0.625809,63.274336,0
2025-08-20,1.974058,2.908658,0.519283,0.043890,0.914983,0.678683,68.436578,0
2025-08-21,1.966269,2.908658,0.519283,0.043890,0.914983,0.676006,67.994100,0
2025-08-24,0.394717,2.908658,0.519283,0.043890,0.914983,0.135704,14.896755,0
2025-08-25,-2.020271,2.908658,0.519283,0.043890,0.914983,0.694571,68.879056,0
2025-08-27,-2.030368,2.908658,0.519283,0.043890,0.914983,0.698043,69.026549,0
2025-08-28,-1.879335,2.908658,0.519283,0.043890,0.914983,0.646118,64.159292,0
2025-08-31,0.192740,2.908658,0.519283,0.043890,0.914983,0.066264,8.407080,0
2025-09-01,-3.228717,2.908658,0.519283,0.043890,0.914983,1.110036,81.415929,0
2025-09-02,0.033140,2.908658,0.519283,0.043890,0.914983,0.011394,3.097345,0
2025-09-03,-2.177276,2.908658,0.519283,0.043890,0.914983,0.748550,71.681416,0
2025-09-04,0.270545,2.908658,0.519283,0.043890,0.914983,0.093014,10.914454,0
2025-09-07,2.204498,2.908658,0.519283,0.043890,0.914983,0.757909,72.271386,0
2025-09-08,-0.895974,2.908658,0.519283,0.043890,0.914983,0.308037,31.120944,0
2025-09-09,1.652930,2.908658,0.519283,0.043890,0.914983,0.568279,56.784661,0
2025-09-10,0.327333,2.908658,0.519283,0.043890,0.914983,0.112537,12.684366,0
2025-09-11,1.395447,2.696617,0.464742,0.045936,0.916281,0.517481,52.359882,0
2025-09-14,9.052330,2.696617,0.464742,0.045936,0.916281,3.356922,98.672566,0
2025-09-15,2.614908,2.696617,0.464742,0.045936,0.916281,0.969700,77.433628,0
2025-09-16,-5.967512,2.696617,0.464742,0.045936,0.916281,2.212963,94.837758,0
2025-09-17,4.900758,2.696617,0.464742,0.045936,0.916281,1.817373,92.625369,0
2025-09-18,0.837067,2.696617,0.464742,0.045936,0.916281,0.310414,31.415929,0
2025-09-21,-4.889077,2.696617,0.464742,0.045936,0.916281,1.813041,92.477876,0
2025-09-22,-0.818310,2.696617,0.464742,0.045936,0.916281,0.303458,30.825959,0
2025-09-23,-2.028966,2.696617,0.464742,0.045936,0.916281,0.752412,71.976401,0
2025-09-24,-0.529349,2.696617,0.464742,0.045936,0.916281,0.196301,20.943953,0
2025-09-25,-2.050222,2.696617,0.464742,0.045936,0.916281,0.760294,72.418879,0
2025-09-28,-1.444416,2.696617,0.464742,0.045936,0.916281,0.535640,54.129794,0
2025-09-29,0.096946,2.696617,0.464742,0.045936,0.916281,0.035951,3.982301,0
2025-09-30,-1.333136,2.696617,0.464742,0.045936,0.916281,0.494374,49.852507,0
2025-10-02,8.016860,2.696617,0.464742,0.045936,0.916281,2.972933,97.935103,0
2025-10-05,-1.767800,2.696617,0.464742,0.045936,0.916281,0.655562,65.044248,0
2025-10-06,-0.802721,2.696617,0.464742,0.045936,0.916281,0.297677,30.530973,0
2025-10-07,-2.162077,2.696617,0.464742,0.045936,0.916281,0.801774,73.303835,0
2025-10-08,1.102547,2.696617,0.464742,0.045936,0.916281,0.408863,41.592920,0
2025-10-09,-1.356274,2.696617,0.464742,0.045936,0.916281,0.502954,50.442478,0
2025-10-12,-4.249058,3.255629,0.508061,0.042562,0.916416,1.305142,85.103245,0
2025-10-13,0.132450,3.255629,0.508061,0.042562,0.916416,0.040683,4.572271,0
2025-10-14,-1.031108,3.255629,0.508061,0.042562,0.916416,0.316716,31.710914,0
2025-10-15,3.385697,3.255629,0.508061,0.042562,0.916416,1.039952,79.351032,0
2025-10-16,-4.056616,3.255629,0.508061,0.042562,0.916416,1.246031,83.775811,0
2025-10-19,0.637479,3.255629,0.508061,0.042562,0.916416,0.195808,20.796460,0
2025-10-20,-0.267917,3.255629,0.508061,0.042562,0.916416,0.082294,9.587021,0
2025-10-22,0.234467,3.255629,0.508061,0.042562,0.916416,0.072019,8.997050,0
2025-10-23,0.167140,3.255629,0.508061,0.042562,0.916416,0.051339,5.899705,0
2025-10-26,-0.502261,3.255629,0.508061,0.042562,0.916416,0.154275,16.961652,0
2025-10-27,0.033563,3.255629,0.508061,0.042562,0.916416,0.010309,2.654867,0
2025-10-28,-0.842465,3.255629,0.508061,0.042562,0.916416,0.258772,26.401180,0
2025-10-29,0.808902,3.255629,0.508061,0.042562,0.916416,0.248463,25.663717,0
2025-10-30,-2.206097,3.255629,0.508061,0.042562,0.916416,0.677625,68.141593,0
2025-11-02,0.547572,3.255629,0.508061,0.042562,0.916416,0.168192,18.436578,0
2025-11-03,-3.614014,3.255629,0.508061,0.042562,0.916416,1.110082,81.563422,0
2025-11-05,0.845671,3.255629,0.508061,0.042562,0.916416,0.259757,26.843658,0
2025-11-06,-1.200156,3.255629,0.508061,0.042562,0.916416,0.368640,35.840708,0
2025-11-09,3.695088,3.255629,0.508061,0.042562,0.916416,1.134984,82.448378,0
2025-11-10,-0.962869,3.255629,0.508061,0.042562,0.916416,0.295755,30.383481,0
2025-11-11,-0.242173,2.887496,0.500173,0.043908,0.914430,0.083869,9.882006,0
2025-11-12,0.518225,2.887496,0.500173,0.043908,0.914430,0.179472,19.174041,0
2025-11-13,0.926091,2.887496,0.500173,0.043908,0.914430,0.320725,32.153392,0
2025-11-16,2.061232,2.887496,0.500173,0.043908,0.914430,0.713847,69.764012,0
2025-11-17,-0.570184,2.887496,0.500173,0.043908,0.914430,0.197467,21.238938,0
2025-11-18,0.469800,2.887496,0.500173,0.043908,0.914430,0.162701,17.846608,0
2025-11-19,-0.469800,2.887496,0.500173,0.043908,0.914430,0.162701,17.699115,0
2025-11-20,-2.038807,2.887496,0.500173,0.043908,0.914430,0.706081,69.469027,0
2025-11-23,-3.102916,2.887496,0.500173,0.043908,0.914430,1.074604,79.941003,0
2025-11-24,1.928869,2.887496,0.500173,0.043908,0.914430,0.668008,66.076696,0
2025-11-25,0.312121,2.887496,0.500173,0.043908,0.914430,0.108094,12.094395,0
2025-11-26,3.135908,2.887496,0.500173,0.043908,0.914430,1.086030,80.678466,0
2025-11-27,1.366460,2.887496,0.500173,0.043908,0.914430,0.473234,47.935103,0
2025-11-30,-1.534386,2.887496,0.500173,0.043908,0.914430,0.531390,53.539823,0
2025-12-01,-0.201884,2.887496,0.500173,0.043908,0.914430,0.069917,8.849558,0
2025-12-02,1.338260,2.887496,0.500173,0.043908,0.914430,0.463467,46.165192,0
2025-12-03,-0.332890,2.887496,0.500173,0.043908,0.914430,0.115287,12.979351,0
2025-12-04,0.498920,2.887496,0.500173,0.043908,0.914430,0.172786,19.026549,0
2025-12-07,-0.498920,2.887496,0.500173,0.043908,0.914430,0.172786,18.879056,0
2025-12-08,0.962344,2.887496,0.500173,0.043908,0.914430,0.333280,33.185841,0
2025-12-09,2.414473,2.555698,0.447935,0.046865,0.914763,0.944741,76.401180,0
2025-12-10,0.161057,2.555698,0.447935,0.046865,0.914763,0.063019,7.669617,0
2025-12-11,0.321337,2.555698,0.447935,0.046865,0.914763,0.125734,14.159292,0
2025-12-14,0.703328,2.555698,0.447935,0.046865,0.914763,0.275200,28.318584,0
2025-12-15,-1.217964,2.555698,0.447935,0.046865,0.914763,0.476568,48.230088,0
2025-12-16,-1.429060,2.555698,0.447935,0.046865,0.914763,0.559166,55.162242,0
2025-12-17,-1.217721,2.555698,0.447935,0.046865,0.914763,0.476473,48.082596,0
2025-12-18,1.315808,2.555698,0.447935,0.046865,0.914763,0.514853,51.917404,0
2025-12-21,1.877685,2.555698,0.447935,0.046865,0.914763,0.734706,70.796460,0
2025-12-22,-1.031602,2.555698,0.447935,0.046865,0.914763,0.403648,41.150442,0
2025-12-23,0.420372,2.555698,0.447935,0.046865,0.914763,0.164484,17.994100,0
2025-12-25,-0.161473,2.555698,0.447935,0.046865,0.914763,0.063181,7.817109,0
2025-12-28,2.961528,2.555698,0.447935,0.046865,0.914763,1.158794,82.890855,0
2025-12-29,-0.661107,2.555698,0.447935,0.046865,0.914763,0.258680,26.253687,0
2025-12-30,3.293246,2.555698,0.447935,0.046865,0.914763,1.288590,84.808260,0
2025-12-31,-3.166983,2.555698,0.447935,0.046865,0.914763,1.239185,83.480826,0
2026-01-01,0.346402,2.555698,0.447935,0.046865,0.914763,0.135541,14.749263,0
2026-01-04,-0.630718,2.555698,0.447935,0.046865,0.914763,0.246789,25.368732,0
2026-01-05,-0.953599,2.555698,0.447935,0.046865,0.914763,0.373127,36.283186,0
2026-01-06,-1.285778,2.555698,0.447935,0.046865,0.914763,0.503102,50.589971,0
2026-01-07,-0.356507,2.504206,0.383257,0.049012,0.917689,0.142363,15.781711,0
2026-01-08,0.356507,2.504206,0.383257,0.049012,0.917689,0.142363,15.634218,0
2026-01-11,-1.335307,2.504206,0.383257,0.049012,0.917689,0.533226,53.982301,0
2026-01-12,0.000000,2.504206,0.383257,0.049012,0.917689,0.000000,1.327434,0
2026-01-13,0.131062,2.504206,0.383257,0.049012,0.917689,0.052337,6.268437,0
2026-01-15,0.294262,2.504206,0.383257,0.049012,0.917689,0.117507,13.274336,0
2026-01-18,10.966076,2.504206,0.383257,0.049012,0.917689,4.379063,99.410029,0
2026-01-19,-11.325847,2.504206,0.383257,0.049012,0.917689,4.522730,99.557522,0
2026-01-20,0.000000,2.504206,0.383257,0.049012,0.917689,0.000000,1.327434,0
2026-01-21,1.107864,2.504206,0.383257,0.049012,0.917689,0.442401,44.395280,0
2026-01-22,-0.976888,2.504206,0.383257,0.049012,0.917689,0.390099,39.085546,0
2026-01-26,0.359301,2.504206,0.383257,0.049012,0.917689,0.143479,16.076696,0
2026-01-27,0.293017,2.504206,0.383257,0.049012,0.917689,0.117010,13.126844,0
2026-01-28,1.868009,2.504206,0.383257,0.049012,0.917689,0.745949,71.238938,0
2026-01-29,-2.422208,2.504206,0.383257,0.049012,0.917689,0.967256,77.286136,0
2026-02-01,-1.283123,2.504206,0.383257,0.049012,0.917689,0.512387,51.327434,0
2026-02-02,0.988476,2.504206,0.383257,0.049012,0.917689,0.394726,39.675516,0
2026-02-03,0.653597,2.504206,0.383257,0.049012,0.917689,0.261000,27.286136,0
2026-02-04,-0.653597,2.504206,0.383257,0.049012,0.917689,0.261000,27.433628,0
2026-02-05,0.131062,2.504206,0.383257,0.049012,0.917689,0.052337,6.268437,0
2026-02-08,2.330203,3.122384,0.513205,0.048668,0.906770,0.746289,71.386431,0
2026-02-09,-0.770717,3.122384,0.513205,0.048668,0.906770,0.246836,25.516224,0
2026-02-10,-1.265224,3.122384,0.513205,0.048668,0.906770,0.405211,41.297935,0
2026-02-11,1.232981,3.122384,0.513205,0.048668,0.906770,0.394885,39.823009,0
2026-02-12,-1.232981,3.122384,0.513205,0.048668,0.906770,0.394885,39.970501,0
2026-02-15,1.587078,3.122384,0.513205,0.048668,0.906770,0.508290,51.032448,0
2026-02-16,-0.257400,3.122384,0.513205,0.048668,0.906770,0.082437,9.734513,0
2026-02-17,-0.032222,3.122384,0.513205,0.048668,0.906770,0.010320,2.802360,0
2026-02-18,-1.460828,3.122384,0.513205,0.048668,0.906770,0.467856,47.050147,0
2026-02-19,1.589652,3.122384,0.513205,0.048668,0.906770,0.509115,51.179941,0
2026-02-22,2.259444,3.122384,0.513205,0.048668,0.906770,0.723628,70.206490,0
2026-02-23,8.212216,3.122384,0.513205,0.048668,0.906770,2.630111,96.755162,0
2026-02-24,7.427359,3.122384,0.513205,0.048668,0.906770,2.378746,95.427729,0
2026-02-25,3.490571,3.122384,0.513205,0.048668,0.906770,1.117918,81.858407,0
2026-02-26,-7.947980,3.122384,0.513205,0.048668,0.906770,2.545484,96.607670,0
2026-03-01,-7.566756,3.122384,0.513205,0.048668,0.906770,2.423390,96.017699,0
2026-03-03,2.753841,3.122384,0.513205,0.048668,0.906770,0.881967,75.221239,0
2026-03-04,1.319861,3.122384,0.513205,0.048668,0.906770,0.422709,42.920354,0
2026-03-05,4.445176,3.122384,0.513205,0.048668,0.906770,1.423648,89.085546,0
2026-03-08,-3.748309,3.122384,0.513205,0.048668,0.906770,1.200464,83.185841,0
2026-03-09,11.701113,3.965728,0.615108,0.055417,0.892444,2.950559,97.787611,0
2026-03-10,1.431151,3.965728,0.615108,0.055417,0.892444,0.360880,35.250737,0
2026-03-11,-8.551311,3.965728,0.615108,0.055417,0.892444,2.156303,94.690265,0
2026-03-12,1.590382,3.965728,0.615108,0.055417,0.892444,0.401032,40.707965,0
2026-03-15,-4.251231,3.965728,0.615108,0.055417,0.892444,1.071993,79.793510,0
2026-03-16,-2.587838,3.965728,0.615108,0.055417,0.892444,0.652551,64.601770,0
2026-03-17,-0.204111,3.965728,0.615108,0.055417,0.892444,0.051469,6.047198,0
2026-03-18,-2.034568,3.965728,0.615108,0.055417,0.892444,0.513038,51.622419,0
2026-03-19,-1.773149,3.965728,0.615108,0.055417,0.892444,0.447118,44.690265,0
2026-03-22,-9.437066,3.965728,0.615108,0.055417,0.892444,2.379656,95.575221,0
2026-03-23,3.856687,3.965728,0.615108,0.055417,0.892444,0.972504,77.728614,0
2026-03-24,-0.546537,3.965728,0.615108,0.055417,0.892444,0.137815,15.191740,0
2026-03-26,-1.821781,3.965728,0.615108,0.055417,0.892444,0.459381,45.722714,0
2026-03-29,-2.358522,3.965728,0.615108,0.055417,0.892444,0.594726,60.324484,0
2026-03-31,1.600568,3.965728,0.615108,0.055417,0.892444,0.403600,41.002950,0
2026-04-01,-0.231827,3.965728,0.615108,0.055417,0.892444,0.058458,7.079646,0
2026-04-05,0.562078,3.965728,0.615108,0.055417,0.892444,0.141734,15.339233,0
2026-04-06,-0.264114,3.965728,0.615108,0.055417,0.892444,0.066599,8.554572,0
2026-04-07,0.494642,3.965728,0.615108,0.055417,0.892444,0.124729,13.864307,0
2026-04-08,1.047130,3.965728,0.615108,0.055417,0.892444,0.264045,27.581121,0
2026-04-09,8.633298,3.170373,0.797096,0.064984,0.867342,2.723117,97.050147,0
2026-04-12,1.628942,3.170373,0.797096,0.064984,0.867342,0.513801,51.769912,0
2026-04-14,2.895396,3.170373,0.797096,0.064984,0.867342,0.913267,75.811209,0
2026-04-15,0.057061,3.170373,0.797096,0.064984,0.867342,0.017998,3.687316,0
2026-04-16,2.784598,3.170373,0.797096,0.064984,0.867342,0.878319,75.073746,0
2026-04-19,-7.665041,3.170373,0.797096,0.064984,0.867342,2.417710,95.870206,0
2026-04-20,-1.144591,3.170373,0.797096,0.064984,0.867342,0.361027,35.398230,0
2026-04-21,1.383897,3.170373,0.797096,0.064984,0.867342,0.436509,44.100295,0
2026-04-22,-2.052592,3.170373,0.797096,0.064984,0.867342,0.647429,64.306785,0
2026-04-23,-0.581130,3.170373,0.797096,0.064984,0.867342,0.183300,19.616519,0
2026-04-26,-2.201981,3.170373,0.797096,0.064984,0.867342,0.694549,68.731563,0
2026-04-27,-1.135301,3.170373,0.797096,0.064984,0.867342,0.358097,34.808260,0
2026-04-28,1.853942,3.170373,0.797096,0.064984,0.867342,0.584771,59.292035,0
2026-04-29,0.620734,3.170373,0.797096,0.064984,0.867342,0.195792,20.648968,0
2026-05-03,-0.838905,3.170373,0.797096,0.064984,0.867342,0.264608,27.728614,0
2026-05-04,1.086124,3.170373,0.797096,0.064984,0.867342,0.342586,34.218289,0
2026-05-05,-0.899091,3.170373,0.797096,0.064984,0.867342,0.283592,29.203540,0
2026-05-06,0.373019,3.170373,0.797096,0.064984,0.867342,0.117658,13.421829,0
2026-05-07,-0.404167,3.170373,0.797096,0.064984,0.867342,0.127482,14.306785,0
2026-05-10,-0.374532,3.170373,0.797096,0.064984,0.867342,0.118135,13.569322,0
2026-05-11,-4.313079,2.787847,0.694002,0.060018,0.880501,1.547100,90.117994,0
2026-05-12,-0.687963,2.787847,0.694002,0.060018,0.880501,0.246772,25.221239,0
2026-05-13,1.630294,2.787847,0.694002,0.060018,0.880501,0.584786,59.439528,0
2026-05-14,-5.997800,2.787847,0.694002,0.060018,0.880501,2.151409,94.542773,0
2026-05-17,3.906221,2.787847,0.694002,0.060018,0.880501,1.401160,88.495575,0
2026-05-18,-1.597904,2.787847,0.694002,0.060018,0.880501,0.573168,57.079646,0
2026-05-19,-0.302470,2.787847,0.694002,0.060018,0.880501,0.108496,12.241888,0
2026-05-20,-1.150994,2.787847,0.694002,0.060018,0.880501,0.412861,41.887906,0
2026-05-21,-1.336781,2.787847,0.694002,0.060018,0.880501,0.479503,48.672566,0
2026-05-24,-0.588339,2.787847,0.694002,0.060018,0.880501,0.211037,22.566372,0
2026-05-25,0.622839,2.787847,0.694002,0.060018,0.880501,0.223412,23.598820,0
2026-05-26,2.385935,2.787847,0.694002,0.060018,0.880501,0.855834,74.778761,0
2026-05-27,0.000000,2.787847,0.694002,0.060018,0.880501,0.000000,1.327434,0
2026-05-28,-0.033687,2.787847,0.694002,0.060018,0.880501,0.012084,3.244838,0
2026-05-31,-1.596230,2.787847,0.694002,0.060018,0.880501,0.572567,56.932153,0
2026-06-01,0.954011,2.787847,0.694002,0.060018,0.880501,0.342203,34.070796,0
2026-06-02,-1.503274,2.787847,0.694002,0.060018,0.880501,0.539224,54.277286,0
2026-06-03,0.925139,2.787847,0.694002,0.060018,0.880501,0.331847,33.038348,0
