Date,Open,High,Low,Close,Volume,Dividends,Stock_Splits,Delivery_Percentage
2023-06-06 00:00:00+05:30,13.25,13.25,12.850000381469727,12.899999618530273,53223.0,0.0,0.0,0.3247
2023-06-07 00:00:00+05:30,12.899999618530273,13.949999809265137,12.899999618530273,13.399999618530273,379055.0,0.0,0.0,0.6704
2023-06-08 00:00:00+05:30,13.399999618530273,13.75,12.949999809265137,13.0,72170.0,0.0,0.0,0.5392
2023-06-09 00:00:00+05:30,13.0,13.399999618530273,13.0,13.199999809265137,47457.0,0.0,0.0,0.4592
2023-06-12 00:00:00+05:30,13.100000381469727,13.399999618530273,13.050000190734863,13.149999618530273,19511.0,0.0,0.0,0.1936
2023-06-13 00:00:00+05:30,13.100000381469727,13.5,13.100000381469727,13.25,69487.0,0.0,0.0,0.1936
2023-06-14 00:00:00+05:30,13.199999809265137,13.800000190734863,13.050000190734863,13.600000381469727,137447.0,0.0,0.0,0.1349
2023-06-15 00:00:00+05:30,13.75,13.800000190734863,13.149999618530273,13.25,53466.0,0.0,0.0,0.6197
2023-06-16 00:00:00+05:30,13.25,13.5,13.100000381469727,13.449999809265137,35712.0,0.0,0.0,0.4607
2023-06-19 00:00:00+05:30,13.25,13.699999809265137,13.149999618530273,13.199999809265137,35306.0,0.0,0.0,0.5248
2023-06-20 00:00:00+05:30,13.350000381469727,13.600000381469727,13.149999618530273,13.399999618530273,54384.0,0.0,0.0,0.1124
2023-06-21 00:00:00+05:30,13.399999618530273,13.600000381469727,13.199999809265137,13.399999618530273,28021.0,0.0,0.0,0.6819
2023-06-22 00:00:00+05:30,13.600000381469727,13.649999618530273,13.199999809265137,13.25,63592.0,0.0,0.0,0.5995
2023-06-23 00:00:00+05:30,13.25,13.25,13.0,13.100000381469727,25770.0,0.0,0.0,0.2274
2023-06-26 00:00:00+05:30,13.25,13.5,13.050000190734863,13.25,39287.0,0.0,0.0,0.2091
2023-06-27 00:00:00+05:30,13.25,13.449999809265137,13.100000381469727,13.149999618530273,21179.0,0.0,0.0,0.21
2023-06-28 00:00:00+05:30,13.100000381469727,13.25,13.050000190734863,13.050000190734863,18003.0,0.0,0.0,0.2825
2023-06-30 00:00:00+05:30,12.949999809265137,13.5,12.949999809265137,13.199999809265137,35450.0,0.0,0.0,0.4149
2023-07-03 00:00:00+05:30,13.449999809265137,13.449999809265137,13.149999618530273,13.399999618530273,32766.0,0.0,0.0,0.3592
2023-07-04 00:00:00+05:30,13.5,13.5,13.149999618530273,13.199999809265137,21348.0,0.0,0.0,0.2747
2023-07-05 00:00:00+05:30,13.199999809265137,13.5,13.149999618530273,13.199999809265137,29920.0,0.0,0.0,0.4671
2023-07-06 00:00:00+05:30,13.199999809265137,13.350000381469727,13.100000381469727,13.25,35865.0,0.0,0.0,0.1837
2023-07-07 00:00:00+05:30,13.25,13.300000190734863,12.550000190734863,12.899999618530273,80502.0,0.0,0.0,0.2753
2023-07-10 00:00:00+05:30,12.899999618530273,13.0,12.75,12.800000190734863,21224.0,0.0,0.0,0.3198
2023-07-11 00:00:00+05:30,12.800000190734863,13.0,12.699999809265137,12.800000190734863,17037.0,0.0,0.0,0.3736
2023-07-12 00:00:00+05:30,13.0,13.0,12.600000381469727,12.699999809265137,41933.0,0.0,0.0,0.5711
2023-07-13 00:00:00+05:30,12.75,12.850000381469727,12.649999618530273,12.699999809265137,20198.0,0.0,0.0,0.2198
2023-07-14 00:00:00+05:30,12.699999809265137,12.800000190734863,12.600000381469727,12.649999618530273,27678.0,0.0,0.0,0.4085
2023-07-17 00:00:00+05:30,12.600000381469727,12.899999618530273,12.600000381469727,12.75,24144.0,0.0,0.0,0.4554
2023-07-18 00:00:00+05:30,12.699999809265137,12.850000381469727,12.550000190734863,12.600000381469727,25982.0,0.0,0.0,0.1279
2023-07-19 00:00:00+05:30,12.600000381469727,12.75,12.550000190734863,12.649999618530273,25872.0,0.0,0.0,0.4645
2023-07-20 00:00:00+05:30,12.75,12.75,12.449999809265137,12.550000190734863,61917.0,0.0,0.0,0.2023
2023-07-21 00:00:00+05:30,12.5,12.600000381469727,12.5,12.5,47815.0,0.0,0.0,0.139
2023-07-24 00:00:00+05:30,12.5,12.5,12.25,12.300000190734863,49225.0,0.0,0.0,0.6693
2023-07-25 00:00:00+05:30,12.399999618530273,12.600000381469727,12.300000190734863,12.449999809265137,26571.0,0.0,0.0,0.6794
2023-07-26 00:00:00+05:30,12.5,12.550000190734863,12.350000381469727,12.5,19922.0,0.0,0.0,0.585
2023-07-27 00:00:00+05:30,12.600000381469727,12.600000381469727,12.399999618530273,12.399999618530273,25966.0,0.0,0.0,0.2828
2023-07-28 00:00:00+05:30,12.399999618530273,12.5,12.25,12.350000381469727,39887.0,0.0,0.0,0.1586
2023-07-31 00:00:00+05:30,12.350000381469727,12.550000190734863,12.300000190734863,12.350000381469727,38504.0,0.0,0.0,0.5105
2023-08-01 00:00:00+05:30,12.5,12.600000381469727,12.350000381469727,12.449999809265137,46949.0,0.0,0.0,0.3641
2023-08-02 00:00:00+05:30,12.5,12.5,12.199999809265137,12.199999809265137,45963.0,0.0,0.0,0.1732
2023-08-03 00:00:00+05:30,12.399999618530273,12.399999618530273,12.149999618530273,12.25,15672.0,0.0,0.0,0.3971
2023-08-04 00:00:00+05:30,12.449999809265137,12.449999809265137,12.25,12.300000190734863,14086.0,0.0,0.0,0.1206
2023-08-07 00:00:00+05:30,12.199999809265137,12.399999618530273,12.149999618530273,12.149999618530273,62814.0,0.0,0.0,0.6456
2023-08-08 00:00:00+05:30,12.149999618530273,12.399999618530273,12.149999618530273,12.25,17359.0,0.0,0.0,0.2553
2023-08-09 00:00:00+05:30,12.25,12.350000381469727,12.100000381469727,12.199999809265137,38536.0,0.0,0.0,0.4975
2023-08-10 00:00:00+05:30,12.199999809265137,12.300000190734863,12.149999618530273,12.149999618530273,32586.0,0.0,0.0,0.287
2023-08-11 00:00:00+05:30,12.25,13.5,12.149999618530273,12.899999618530273,512852.0,0.0,0.0,0.412
2023-08-14 00:00:00+05:30,12.899999618530273,13.199999809265137,12.600000381469727,12.75,104174.0,0.0,0.0,0.428
2023-08-16 00:00:00+05:30,12.600000381469727,13.899999618530273,12.600000381469727,13.5,439086.0,0.0,0.0,0.2109
2023-08-17 00:00:00+05:30,13.600000381469727,13.800000190734863,13.25,13.350000381469727,182585.0,0.0,0.0,0.6818
2023-08-18 00:00:00+05:30,13.350000381469727,13.5,12.949999809265137,13.050000190734863,89271.0,0.0,0.0,0.5651
2023-08-21 00:00:00+05:30,13.25,13.399999618530273,13.0,13.100000381469727,38510.0,0.0,0.0,0.6637
2023-08-22 00:00:00+05:30,13.199999809265137,13.800000190734863,12.949999809265137,13.050000190734863,91362.0,0.0,0.0,0.6369
2023-08-23 00:00:00+05:30,13.149999618530273,13.75,13.100000381469727,13.25,210215.0,0.0,0.0,0.4587
2023-08-24 00:00:00+05:30,13.300000190734863,13.5,13.149999618530273,13.300000190734863,103660.0,0.0,0.0,0.6531
2023-08-25 00:00:00+05:30,13.350000381469727,13.699999809265137,13.149999618530273,13.449999809265137,73262.0,0.0,0.0,0.1531
2023-08-28 00:00:00+05:30,13.5,13.600000381469727,13.0,13.199999809265137,142296.0,0.0,0.0,0.2176
2023-08-29 00:00:00+05:30,13.199999809265137,13.399999618530273,13.050000190734863,13.100000381469727,57892.0,0.0,0.0,0.1271
2023-08-30 00:00:00+05:30,13.25,13.449999809265137,13.0,13.100000381469727,122109.0,0.0,0.0,0.2952
2023-08-31 00:00:00+05:30,13.100000381469727,13.300000190734863,12.899999618530273,12.949999809265137,99024.0,0.0,0.0,0.3332
2023-09-01 00:00:00+05:30,13.0,13.149999618530273,12.949999809265137,13.050000190734863,72154.0,0.0,0.0,0.2628
2023-09-04 00:00:00+05:30,13.100000381469727,13.449999809265137,13.0,13.25,193449.0,0.0,0.0,0.5972
2023-09-05 00:00:00+05:30,13.449999809265137,15.899999618530273,13.350000381469727,15.899999618530273,4035942.0,0.0,0.0,0.3141
2023-09-06 00:00:00+05:30,16.100000381469727,17.399999618530273,15.050000190734863,16.75,2250822.0,0.0,0.0,0.2686
2023-09-07 00:00:00+05:30,17.049999237060547,18.549999237060547,16.600000381469727,17.0,1367174.0,0.0,0.0,0.4256
2023-09-08 00:00:00+05:30,17.399999618530273,17.399999618530273,16.100000381469727,16.25,426389.0,0.0,0.0,0.1846
2023-09-11 00:00:00+05:30,16.5,16.649999618530273,16.049999237060547,16.149999618530273,138717.0,0.0,0.0,0.5813
2023-09-12 00:00:00+05:30,16.350000381469727,16.350000381469727,14.800000190734863,14.949999809265137,333266.0,0.0,0.0,0.1447
2023-09-13 00:00:00+05:30,14.850000381469727,15.800000190734863,14.550000190734863,15.649999618530273,221663.0,0.0,0.0,0.6921
2023-09-14 00:00:00+05:30,15.949999809265137,16.0,15.5,15.550000190734863,81241.0,0.0,0.0,0.5633
2023-09-15 00:00:00+05:30,15.5,16.5,15.399999618530273,16.200000762939453,340043.0,0.0,0.0,0.2192
2023-09-18 00:00:00+05:30,16.450000762939453,16.450000762939453,15.5,15.75,97704.0,0.0,0.0,0.1033
2023-09-20 00:00:00+05:30,15.699999809265137,15.699999809265137,15.050000190734863,15.199999809265137,123029.0,0.0,0.0,0.5893
2023-09-21 00:00:00+05:30,15.149999618530273,15.75,15.100000381469727,15.199999809265137,71633.0,0.0,0.0,0.5241
2023-09-22 00:00:00+05:30,15.199999809265137,15.399999618530273,14.949999809265137,15.050000190734863,51555.0,0.0,0.0,0.5374
2023-09-25 00:00:00+05:30,15.300000190734863,15.649999618530273,15.149999618530273,15.399999618530273,75749.0,0.0,0.0,0.5628
2023-09-26 00:00:00+05:30,15.5,15.5,15.050000190734863,15.100000381469727,130187.0,0.0,0.0,0.1444
2023-09-27 00:00:00+05:30,15.300000190734863,15.399999618530273,14.800000190734863,15.0,56339.0,0.0,0.0,0.3151
2023-09-28 00:00:00+05:30,15.0,15.300000190734863,14.75,14.800000190734863,91717.0,0.0,0.0,0.1695
2023-09-29 00:00:00+05:30,14.800000190734863,15.0,14.600000381469727,14.699999809265137,34641.0,0.0,0.0,0.6179
2023-10-03 00:00:00+05:30,14.800000190734863,15.0,14.600000381469727,14.850000381469727,39180.0,0.0,0.0,0.474
2023-10-04 00:00:00+05:30,15.0,15.0,14.800000190734863,14.949999809265137,50070.0,0.0,0.0,0.2985
2023-10-05 00:00:00+05:30,14.899999618530273,15.0,14.550000190734863,14.699999809265137,32080.0,0.0,0.0,0.1381
2023-10-06 00:00:00+05:30,14.949999809265137,15.25,14.75,15.050000190734863,49813.0,0.0,0.0,0.2866
2023-10-09 00:00:00+05:30,15.050000190734863,15.149999618530273,14.600000381469727,14.699999809265137,38518.0,0.0,0.0,0.2951
2023-10-10 00:00:00+05:30,14.899999618530273,15.050000190734863,14.399999618530273,14.600000381469727,69657.0,0.0,0.0,0.5378
2023-10-11 00:00:00+05:30,14.649999618530273,16.299999237060547,14.600000381469727,16.149999618530273,721276.0,0.0,0.0,0.4825
2023-10-12 00:00:00+05:30,16.399999618530273,16.399999618530273,15.5,15.899999618530273,198664.0,0.0,0.0,0.6323
2023-10-13 00:00:00+05:30,16.0,16.0,15.5,15.550000190734863,105239.0,0.0,0.0,0.3833
2023-10-16 00:00:00+05:30,15.800000190734863,16.0,15.149999618530273,15.399999618530273,205377.0,0.0,0.0,0.1718
2023-10-17 00:00:00+05:30,15.449999809265137,15.699999809265137,15.25,15.350000381469727,93352.0,0.0,0.0,0.5279
2023-10-18 00:00:00+05:30,15.350000381469727,15.5,14.949999809265137,15.100000381469727,108343.0,0.0,0.0,0.5565
2023-10-19 00:00:00+05:30,15.100000381469727,15.199999809265137,14.800000190734863,14.949999809265137,83492.0,0.0,0.0,0.4368
2023-10-20 00:00:00+05:30,15.050000190734863,15.399999618530273,14.800000190734863,15.0,42346.0,0.0,0.0,0.5626
2023-10-23 00:00:00+05:30,15.199999809265137,15.199999809265137,13.550000190734863,13.800000190734863,97044.0,0.0,0.0,0.3963
2023-10-25 00:00:00+05:30,14.050000190734863,14.550000190734863,13.800000190734863,14.050000190734863,422522.0,0.0,0.0,0.4136
2023-10-26 00:00:00+05:30,13.850000381469727,14.100000381469727,13.25,13.5,142623.0,0.0,0.0,0.3565
2023-10-27 00:00:00+05:30,13.5,14.100000381469727,13.5,13.699999809265137,328751.0,0.0,0.0,0.1153
2023-10-30 00:00:00+05:30,13.699999809265137,14.100000381469727,13.649999618530273,13.75,229545.0,0.0,0.0,0.1647
2023-10-31 00:00:00+05:30,13.75,13.949999809265137,13.600000381469727,13.800000190734863,42043.0,0.0,0.0,0.1189
2023-11-01 00:00:00+05:30,14.0,14.100000381469727,13.699999809265137,13.800000190734863,276966.0,0.0,0.0,0.4818
2023-11-02 00:00:00+05:30,13.800000190734863,14.199999809265137,13.800000190734863,13.899999618530273,500116.0,0.0,0.0,0.2886
2023-11-03 00:00:00+05:30,14.100000381469727,14.399999618530273,14.0,14.050000190734863,255031.0,0.0,0.0,0.4051
2023-11-06 00:00:00+05:30,14.0,14.699999809265137,14.0,14.5,814688.0,0.0,0.0,0.6445
2023-11-07 00:00:00+05:30,14.699999809265137,14.699999809265137,14.399999618530273,14.449999809265137,156940.0,0.0,0.0,0.2496
2023-11-08 00:00:00+05:30,14.75,15.050000190734863,14.600000381469727,14.800000190734863,431103.0,0.0,0.0,0.3462
2023-11-09 00:00:00+05:30,14.75,15.050000190734863,14.350000381469727,14.449999809265137,635529.0,0.0,0.0,0.5533
2023-11-10 00:00:00+05:30,14.649999618530273,16.200000762939453,14.449999809265137,15.649999618530273,1345542.0,0.0,0.0,0.2373
2023-11-13 00:00:00+05:30,15.699999809265137,15.800000190734863,15.300000190734863,15.449999809265137,327788.0,0.0,0.0,0.1462
2023-11-15 00:00:00+05:30,15.5,15.75,15.25,15.350000381469727,473832.0,0.0,0.0,0.2739
2023-11-16 00:00:00+05:30,15.350000381469727,15.449999809265137,15.050000190734863,15.199999809265137,872176.0,0.0,0.0,0.1967
2023-11-17 00:00:00+05:30,15.100000381469727,15.75,14.949999809265137,15.5,955462.0,0.0,0.0,0.6578
2023-11-20 00:00:00+05:30,15.350000381469727,17.799999237060547,15.350000381469727,16.950000762939453,2020875.0,0.0,0.0,0.5849
2023-11-21 00:00:00+05:30,17.75,18.200000762939453,17.299999237060547,17.950000762939453,1713511.0,0.0,0.0,0.48
2023-11-22 00:00:00+05:30,18.149999618530273,18.149999618530273,16.399999618530273,16.700000762939453,653775.0,0.0,0.0,0.6229
2023-11-23 00:00:00+05:30,16.700000762939453,17.149999618530273,16.5,16.700000762939453,274110.0,0.0,0.0,0.5822
2023-11-24 00:00:00+05:30,16.899999618530273,17.299999237060547,16.799999237060547,17.049999237060547,498725.0,0.0,0.0,0.2119
2023-11-28 00:00:00+05:30,17.450000762939453,17.5,16.600000381469727,16.75,705319.0,0.0,0.0,0.6355
2023-11-29 00:00:00+05:30,17.0,17.0,16.5,16.549999237060547,734543.0,0.0,0.0,0.4236
2023-11-30 00:00:00+05:30,16.600000381469727,16.75,15.800000190734863,15.949999809265137,525311.0,0.0,0.0,0.5845
2023-12-01 00:00:00+05:30,16.200000762939453,16.5,15.899999618530273,16.149999618530273,484883.0,0.0,0.0,0.6377
2023-12-04 00:00:00+05:30,16.5,16.5,16.049999237060547,16.149999618530273,77410.0,0.0,0.0,0.2908
2023-12-05 00:00:00+05:30,16.299999237060547,16.350000381469727,15.75,16.049999237060547,221430.0,0.0,0.0,0.166
2023-12-06 00:00:00+05:30,16.399999618530273,17.600000381469727,16.350000381469727,17.0,972702.0,0.0,0.0,0.2368
2023-12-07 00:00:00+05:30,17.200000762939453,17.649999618530273,16.5,17.100000381469727,323111.0,0.0,0.0,0.3563
2023-12-08 00:00:00+05:30,17.350000381469727,17.350000381469727,16.649999618530273,16.75,146779.0,0.0,0.0,0.5908
2023-12-11 00:00:00+05:30,17.0,17.0,16.450000762939453,16.549999237060547,219606.0,0.0,0.0,0.6164
2023-12-12 00:00:00+05:30,16.75,16.950000762939453,16.350000381469727,16.450000762939453,192802.0,0.0,0.0,0.1042
2023-12-13 00:00:00+05:30,16.600000381469727,16.75,16.200000762939453,16.399999618530273,132498.0,0.0,0.0,0.4064
2023-12-14 00:00:00+05:30,16.5,16.799999237060547,16.149999618530273,16.350000381469727,155896.0,0.0,0.0,0.3504
2023-12-15 00:00:00+05:30,16.5,16.5,16.149999618530273,16.200000762939453,81797.0,0.0,0.0,0.2333
2023-12-18 00:00:00+05:30,16.25,19.399999618530273,16.25,18.899999618530273,2511418.0,0.0,0.0,0.1719
2023-12-19 00:00:00+05:30,19.600000381469727,19.799999237060547,18.049999237060547,18.950000762939453,1926599.0,0.0,0.0,0.3026
2023-12-20 00:00:00+05:30,18.700000762939453,19.799999237060547,17.899999618530273,18.149999618530273,1198050.0,0.0,0.0,0.6657
2023-12-21 00:00:00+05:30,18.399999618530273,19.299999237060547,17.600000381469727,18.950000762939453,753780.0,0.0,0.0,0.2939
2023-12-22 00:00:00+05:30,19.350000381469727,19.350000381469727,18.149999618530273,18.350000381469727,283104.0,0.0,0.0,0.4113
2023-12-26 00:00:00+05:30,18.600000381469727,18.850000381469727,17.75,18.200000762939453,254886.0,0.0,0.0,0.5218
2023-12-27 00:00:00+05:30,18.25,18.700000762939453,17.299999237060547,17.5,285999.0,0.0,0.0,0.3182
2023-12-28 00:00:00+05:30,17.600000381469727,17.700000762939453,16.5,16.649999618530273,429151.0,0.0,0.0,0.6831
2023-12-29 00:00:00+05:30,16.799999237060547,17.950000762939453,16.75,17.5,225203.0,0.0,0.0,0.6775
2024-01-01 00:00:00+05:30,17.700000762939453,19.049999237060547,17.549999237060547,18.299999237060547,536360.0,0.0,0.0,0.2511
2024-01-02 00:00:00+05:30,18.75,20.799999237060547,18.450000762939453,20.25,2746516.0,0.0,0.0,0.3983
2024-01-03 00:00:00+05:30,20.450000762939453,20.700000762939453,19.600000381469727,19.850000381469727,615802.0,0.0,0.0,0.2805
2024-01-04 00:00:00+05:30,19.899999618530273,20.200000762939453,19.450000762939453,19.549999237060547,357173.0,0.0,0.0,0.2709
2024-01-05 00:00:00+05:30,19.600000381469727,19.799999237060547,18.399999618530273,19.25,570521.0,0.0,0.0,0.1221
2024-01-08 00:00:00+05:30,19.25,20.200000762939453,19.049999237060547,19.649999618530273,542363.0,0.0,0.0,0.4657
2024-01-09 00:00:00+05:30,19.799999237060547,20.700000762939453,19.25,20.350000381469727,692641.0,0.0,0.0,0.4016
2024-01-10 00:00:00+05:30,20.049999237060547,20.450000762939453,19.799999237060547,19.950000762939453,359423.0,0.0,0.0,0.1309
2024-01-11 00:00:00+05:30,19.950000762939453,20.200000762939453,19.450000762939453,19.700000762939453,178537.0,0.0,0.0,0.2672
2024-01-12 00:00:00+05:30,19.700000762939453,20.399999618530273,19.200000762939453,19.350000381469727,395051.0,0.0,0.0,0.645
2024-01-15 00:00:00+05:30,19.450000762939453,20.549999237060547,19.299999237060547,19.950000762939453,545691.0,0.0,0.0,0.2437
2024-01-16 00:00:00+05:30,20.549999237060547,20.600000381469727,19.0,19.549999237060547,438396.0,0.0,0.0,0.1869
2024-01-17 00:00:00+05:30,19.549999237060547,19.799999237060547,18.850000381469727,19.149999618530273,172470.0,0.0,0.0,0.3937
2024-01-18 00:00:00+05:30,19.049999237060547,19.799999237060547,18.399999618530273,19.200000762939453,199832.0,0.0,0.0,0.6914
2024-01-19 00:00:00+05:30,19.399999618530273,20.399999618530273,19.149999618530273,19.75,464185.0,0.0,0.0,0.2452
2024-01-23 00:00:00+05:30,19.5,19.75,17.899999618530273,18.25,307197.0,0.0,0.0,0.5033
2024-01-24 00:00:00+05:30,18.299999237060547,18.600000381469727,17.700000762939453,17.899999618530273,522103.0,0.0,0.0,0.557
2024-01-25 00:00:00+05:30,18.049999237060547,18.950000762939453,18.0,18.549999237060547,505999.0,0.0,0.0,0.2426
2024-01-29 00:00:00+05:30,18.850000381469727,19.350000381469727,18.350000381469727,18.549999237060547,473863.0,0.0,0.0,0.5369
2024-01-30 00:00:00+05:30,18.799999237060547,19.899999618530273,18.100000381469727,19.299999237060547,881136.0,0.0,0.0,0.3207
2024-01-31 00:00:00+05:30,19.299999237060547,19.799999237060547,18.850000381469727,18.950000762939453,461047.0,0.0,0.0,0.4794
2024-02-01 00:00:00+05:30,19.25,19.399999618530273,18.5,18.649999618530273,328657.0,0.0,0.0,0.4801
2024-02-02 00:00:00+05:30,18.850000381469727,19.200000762939453,18.399999618530273,18.5,312814.0,0.0,0.0,0.4215
2024-02-05 00:00:00+05:30,18.700000762939453,19.350000381469727,18.0,18.149999618530273,255041.0,0.0,0.0,0.1542
2024-02-06 00:00:00+05:30,18.450000762939453,21.75,18.0,21.75,4434228.0,0.0,0.0,0.6012
2024-02-07 00:00:00+05:30,21.899999618530273,24.350000381469727,20.5,23.049999237060547,6061557.0,0.0,0.0,0.2925
2024-02-08 00:00:00+05:30,23.700000762939453,23.899999618530273,22.399999618530273,23.350000381469727,1453883.0,0.0,0.0,0.2119
2024-02-09 00:00:00+05:30,24.0,24.0,21.0,21.950000762939453,1023722.0,0.0,0.0,0.1245
2024-02-12 00:00:00+05:30,22.0,22.399999618530273,19.299999237060547,19.649999618530273,702268.0,0.0,0.0,0.4545
2024-02-13 00:00:00+05:30,19.049999237060547,20.149999618530273,18.700000762939453,19.25,471798.0,0.0,0.0,0.5065
2024-02-14 00:00:00+05:30,18.850000381469727,20.399999618530273,18.850000381469727,20.25,410323.0,0.0,0.0,0.11
2024-02-15 00:00:00+05:30,20.850000381469727,21.200000762939453,20.450000762939453,20.700000762939453,326424.0,0.0,0.0,0.4073
2024-02-16 00:00:00+05:30,21.049999237060547,21.700000762939453,20.850000381469727,21.25,374675.0,0.0,0.0,0.2359
2024-02-19 00:00:00+05:30,21.649999618530273,21.649999618530273,20.600000381469727,20.700000762939453,221074.0,0.0,0.0,0.4871
2024-02-20 00:00:00+05:30,20.700000762939453,21.149999618530273,20.0,20.149999618530273,259170.0,0.0,0.0,0.2046
2024-02-21 00:00:00+05:30,20.25,21.0,19.450000762939453,19.700000762939453,426046.0,0.0,0.0,0.5146
2024-02-22 00:00:00+05:30,19.899999618530273,20.850000381469727,19.200000762939453,20.350000381469727,471362.0,0.0,0.0,0.332
2024-02-23 00:00:00+05:30,20.5,20.700000762939453,19.799999237060547,19.899999618530273,205478.0,0.0,0.0,0.662
2024-02-26 00:00:00+05:30,20.0,20.100000381469727,19.0,19.200000762939453,349526.0,0.0,0.0,0.1825
2024-02-27 00:00:00+05:30,19.350000381469727,19.950000762939453,18.549999237060547,18.899999618530273,351210.0,0.0,0.0,0.3046
2024-02-28 00:00:00+05:30,19.0,19.299999237060547,17.899999618530273,18.299999237060547,353315.0,0.0,0.0,0.1681
2024-02-29 00:00:00+05:30,18.299999237060547,18.5,17.950000762939453,18.350000381469727,104803.0,0.0,0.0,0.6548
2024-03-01 00:00:00+05:30,18.549999237060547,19.350000381469727,18.299999237060547,19.149999618530273,375337.0,0.0,0.0,0.6264
2024-03-04 00:00:00+05:30,19.299999237060547,20.5,18.600000381469727,19.600000381469727,1032288.0,0.0,0.0,0.2548
2024-03-05 00:00:00+05:30,19.600000381469727,20.700000762939453,19.149999618530273,19.399999618530273,430469.0,0.0,0.0,0.496
2024-03-06 00:00:00+05:30,19.5,19.600000381469727,18.350000381469727,18.850000381469727,259658.0,0.0,0.0,0.5903
2024-03-07 00:00:00+05:30,18.600000381469727,19.200000762939453,18.600000381469727,18.75,93568.0,0.0,0.0,0.4331
2024-03-11 00:00:00+05:30,18.950000762939453,18.950000762939453,17.899999618530273,18.200000762939453,166822.0,0.0,0.0,0.4178
2024-03-12 00:00:00+05:30,18.149999618530273,18.25,16.600000381469727,16.850000381469727,278542.0,0.0,0.0,0.2451
2024-03-13 00:00:00+05:30,16.600000381469727,17.049999237060547,15.199999809265137,15.399999618530273,326514.0,0.0,0.0,0.1559
2024-03-14 00:00:00+05:30,15.300000190734863,16.149999618530273,14.800000190734863,15.75,323350.0,0.0,0.0,0.6383
2024-03-15 00:00:00+05:30,15.899999618530273,16.299999237060547,15.550000190734863,15.899999618530273,139280.0,0.0,0.0,0.6403
2024-03-18 00:00:00+05:30,15.649999618530273,16.299999237060547,15.600000381469727,15.949999809265137,101099.0,0.0,0.0,0.4799
2024-03-19 00:00:00+05:30,15.649999618530273,16.100000381469727,15.149999618530273,15.350000381469727,156688.0,0.0,0.0,0.3034
2024-03-20 00:00:00+05:30,15.25,15.649999618530273,14.550000190734863,14.899999618530273,175876.0,0.0,0.0,0.3095
2024-03-21 00:00:00+05:30,15.0,16.5,14.949999809265137,16.049999237060547,618976.0,0.0,0.0,0.5356
2024-03-22 00:00:00+05:30,16.049999237060547,16.149999618530273,15.600000381469727,15.75,155728.0,0.0,0.0,0.6383
2024-03-26 00:00:00+05:30,16.0,16.149999618530273,15.399999618530273,15.5,123171.0,0.0,0.0,0.6323
2024-03-27 00:00:00+05:30,15.399999618530273,15.75,14.5,14.800000190734863,307388.0,0.0,0.0,0.5679
2024-03-28 00:00:00+05:30,15.0,15.449999809265137,14.550000190734863,14.649999618530273,164925.0,0.0,0.0,0.4852
2024-04-01 00:00:00+05:30,14.5,16.200000762939453,14.399999618530273,16.100000381469727,220502.0,0.0,0.0,0.1505
2024-04-02 00:00:00+05:30,16.049999237060547,16.75,15.800000190734863,16.600000381469727,154019.0,0.0,0.0,0.197
2024-04-03 00:00:00+05:30,16.950000762939453,17.600000381469727,16.549999237060547,17.299999237060547,301469.0,0.0,0.0,0.6391
2024-04-04 00:00:00+05:30,17.950000762939453,20.200000762939453,17.100000381469727,19.549999237060547,1437274.0,0.0,0.0,0.4639
2024-04-05 00:00:00+05:30,19.549999237060547,21.25,18.799999237060547,20.850000381469727,1624947.0,0.0,0.0,0.1055
2024-04-08 00:00:00+05:30,21.549999237060547,21.549999237060547,19.600000381469727,19.75,367879.0,0.0,0.0,0.1609
2024-04-09 00:00:00+05:30,19.950000762939453,20.899999618530273,19.399999618530273,19.5,248792.0,0.0,0.0,0.4981
2024-04-10 00:00:00+05:30,19.549999237060547,20.200000762939453,19.200000762939453,19.350000381469727,168929.0,0.0,0.0,0.103
2024-04-12 00:00:00+05:30,19.049999237060547,19.899999618530273,18.299999237060547,18.899999618530273,238854.0,0.0,0.0,0.1965
2024-04-15 00:00:00+05:30,17.799999237060547,19.299999237060547,17.299999237060547,19.100000381469727,367991.0,0.0,0.0,0.4292
2024-04-16 00:00:00+05:30,19.100000381469727,21.0,18.5,21.0,1304407.0,0.0,0.0,0.5151
2024-04-18 00:00:00+05:30,21.399999618530273,23.100000381469727,21.149999618530273,22.149999618530273,1986566.0,0.0,0.0,0.4912
2024-04-19 00:00:00+05:30,22.0,22.25,20.899999618530273,22.100000381469727,346575.0,0.0,0.0,0.2346
2024-04-22 00:00:00+05:30,23.049999237060547,23.200000762939453,21.600000381469727,22.450000762939453,371283.0,0.0,0.0,0.5273
2024-04-23 00:00:00+05:30,22.049999237060547,22.899999618530273,21.799999237060547,22.049999237060547,245867.0,0.0,0.0,0.2423
2024-04-24 00:00:00+05:30,22.0,22.5,21.899999618530273,22.0,287056.0,0.0,0.0,0.2952
2024-04-25 00:00:00+05:30,22.25,22.25,21.0,21.350000381469727,173168.0,0.0,0.0,0.5479
2024-04-26 00:00:00+05:30,21.350000381469727,21.799999237060547,21.350000381469727,21.600000381469727,106113.0,0.0,0.0,0.4898
2024-04-29 00:00:00+05:30,21.950000762939453,21.950000762939453,21.5,21.700000762939453,117777.0,0.0,0.0,0.6095
2024-04-30 00:00:00+05:30,22.0,22.700000762939453,21.649999618530273,22.049999237060547,256537.0,0.0,0.0,0.4946
2024-05-02 00:00:00+05:30,22.350000381469727,23.25,21.149999618530273,22.899999618530273,800970.0,0.0,0.0,0.441
2024-05-03 00:00:00+05:30,22.950000762939453,23.0,22.399999618530273,22.600000381469727,178059.0,0.0,0.0,0.1562
2024-05-06 00:00:00+05:30,22.75,22.850000381469727,22.149999618530273,22.450000762939453,193243.0,0.0,0.0,0.3206
2024-05-07 00:00:00+05:30,23.0,23.0,21.799999237060547,22.100000381469727,146988.0,0.0,0.0,0.2591
2024-05-08 00:00:00+05:30,22.5,22.700000762939453,21.950000762939453,22.049999237060547,86039.0,0.0,0.0,0.2464
2024-05-09 00:00:00+05:30,22.200000762939453,22.25,20.149999618530273,20.799999237060547,112511.0,0.0,0.0,0.6838
2024-05-10 00:00:00+05:30,20.399999618530273,20.850000381469727,20.149999618530273,20.600000381469727,42582.0,0.0,0.0,0.3359
2024-05-13 00:00:00+05:30,20.600000381469727,20.850000381469727,19.600000381469727,20.200000762939453,52836.0,0.0,0.0,0.6352
2024-05-14 00:00:00+05:30,19.799999237060547,22.049999237060547,19.700000762939453,21.549999237060547,173093.0,0.0,0.0,0.4787
2024-05-15 00:00:00+05:30,21.75,22.25,21.0,21.5,73362.0,0.0,0.0,0.5769
2024-05-16 00:00:00+05:30,21.899999618530273,21.899999618530273,21.0,21.049999237060547,55536.0,0.0,0.0,0.4016
2024-05-17 00:00:00+05:30,20.600000381469727,22.200000762939453,20.600000381469727,21.450000762939453,160020.0,0.0,0.0,0.4461
2024-05-21 00:00:00+05:30,21.0,22.0,20.5,21.25,167699.0,0.0,0.0,0.3955
2024-05-22 00:00:00+05:30,21.399999618530273,21.450000762939453,20.700000762939453,21.0,65009.0,0.0,0.0,0.2171
2024-05-23 00:00:00+05:30,21.049999237060547,21.350000381469727,20.600000381469727,20.700000762939453,44899.0,0.0,0.0,0.5335
2024-05-24 00:00:00+05:30,20.950000762939453,21.049999237060547,20.299999237060547,20.549999237060547,45103.0,0.0,0.0,0.2685
2024-05-27 00:00:00+05:30,20.600000381469727,20.899999618530273,20.100000381469727,20.25,58758.0,0.0,0.0,0.1146
2024-05-28 00:00:00+05:30,20.0,20.450000762939453,19.850000381469727,19.899999618530273,46062.0,0.0,0.0,0.4873
2024-05-29 00:00:00+05:30,19.700000762939453,21.100000381469727,19.700000762939453,20.700000762939453,109213.0,0.0,0.0,0.2063
2024-05-30 00:00:00+05:30,20.950000762939453,21.100000381469727,19.649999618530273,20.100000381469727,68494.0,0.0,0.0,0.6643
2024-05-31 00:00:00+05:30,20.0,20.299999237060547,19.549999237060547,19.700000762939453,64092.0,0.0,0.0,0.6724
2024-06-03 00:00:00+05:30,19.75,20.450000762939453,19.649999618530273,19.799999237060547,46103.0,0.0,0.0,0.6489
2024-06-04 00:00:00+05:30,20.149999618530273,20.149999618530273,17.850000381469727,18.350000381469727,220207.0,0.0,0.0,0.3221
2024-06-05 00:00:00+05:30,18.350000381469727,18.899999618530273,17.5,18.299999237060547,96204.0,0.0,0.0,0.1093
2024-06-06 00:00:00+05:30,18.450000762939453,19.850000381469727,18.350000381469727,19.549999237060547,83179.0,0.0,0.0,0.657
2024-06-07 00:00:00+05:30,19.899999618530273,21.5,19.399999618530273,20.0,186798.0,0.0,0.0,0.3569
2024-06-10 00:00:00+05:30,20.899999618530273,20.899999618530273,20.010000228881836,20.209999084472656,53281.0,0.0,0.0,0.68
2024-06-11 00:00:00+05:30,20.3799991607666,20.799999237060547,19.8700008392334,20.209999084472656,66456.0,0.0,0.0,0.6782
2024-06-12 00:00:00+05:30,20.25,20.5,19.559999465942383,19.969999313354492,82620.0,0.0,0.0,0.6118
2024-06-13 00:00:00+05:30,20.280000686645508,20.280000686645508,19.850000381469727,19.90999984741211,41243.0,0.0,0.0,0.2767
2024-06-14 00:00:00+05:30,19.950000762939453,20.899999618530273,19.8799991607666,20.020000457763672,186163.0,0.0,0.0,0.3311
2024-06-18 00:00:00+05:30,20.049999237060547,20.489999771118164,19.5,19.6299991607666,124568.0,0.0,0.0,0.6107
2024-06-19 00:00:00+05:30,19.850000381469727,19.850000381469727,19.010000228881836,19.18000030517578,76697.0,0.0,0.0,0.2902
2024-06-20 00:00:00+05:30,19.3799991607666,19.579999923706055,19.0,19.09000015258789,120780.0,0.0,0.0,0.2017
2024-06-21 00:00:00+05:30,19.299999237060547,19.530000686645508,19.049999237060547,19.459999084472656,77355.0,0.0,0.0,0.4341
2024-06-24 00:00:00+05:30,19.649999618530273,20.139999389648438,19.399999618530273,19.459999084472656,127706.0,0.0,0.0,0.6617
2024-06-25 00:00:00+05:30,19.489999771118164,19.899999618530273,19.260000228881836,19.31999969482422,89751.0,0.0,0.0,0.5176
2024-06-26 00:00:00+05:30,19.299999237060547,19.8700008392334,19.0,19.530000686645508,137472.0,0.0,0.0,0.442
2024-06-27 00:00:00+05:30,19.530000686645508,19.639999389648438,19.360000610351562,19.56999969482422,88836.0,0.0,0.0,0.1583
2024-06-28 00:00:00+05:30,19.790000915527344,19.790000915527344,19.170000076293945,19.610000610351562,135717.0,0.0,0.0,0.469
2024-07-01 00:00:00+05:30,19.739999771118164,20.75,19.6200008392334,20.5,204523.0,0.0,0.0,0.694
2024-07-02 00:00:00+05:30,20.510000228881836,21.799999237060547,20.020000457763672,21.15999984741211,666799.0,0.0,0.0,0.1841
2024-07-03 00:00:00+05:30,21.479999542236328,21.790000915527344,20.899999618530273,20.93000030517578,147120.0,0.0,0.0,0.411
2024-07-04 00:00:00+05:30,20.799999237060547,21.18000030517578,20.149999618530273,20.280000686645508,47598.0,0.0,0.0,0.6264
2024-07-05 00:00:00+05:30,20.700000762939453,21.799999237060547,20.100000381469727,21.020000457763672,168096.0,0.0,0.0,0.5445
2024-07-08 00:00:00+05:30,21.440000534057617,21.920000076293945,20.5,21.020000457763672,289215.0,0.0,0.0,0.5182
2024-07-09 00:00:00+05:30,21.239999771118164,21.989999771118164,20.950000762939453,20.969999313354492,160139.0,0.0,0.0,0.5215
2024-07-10 00:00:00+05:30,21.229999542236328,21.229999542236328,20.299999237060547,20.6200008392334,76323.0,0.0,0.0,0.3157
2024-07-11 00:00:00+05:30,20.950000762939453,20.950000762939453,20.299999237060547,20.34000015258789,61478.0,0.0,0.0,0.2762
2024-07-12 00:00:00+05:30,20.25,21.399999618530273,20.25,21.100000381469727,149216.0,0.0,0.0,0.5856
2024-07-15 00:00:00+05:30,21.469999313354492,21.469999313354492,20.579999923706055,20.729999542236328,62068.0,0.0,0.0,0.5861
2024-07-16 00:00:00+05:30,20.969999313354492,20.969999313354492,20.1200008392334,20.270000457763672,83161.0,0.0,0.0,0.6202
2024-07-18 00:00:00+05:30,20.31999969482422,21.25,19.809999465942383,20.469999313354492,199309.0,0.0,0.0,0.6479
2024-07-19 00:00:00+05:30,20.670000076293945,20.700000762939453,19.809999465942383,20.06999969482422,83057.0,0.0,0.0,0.4068
2024-07-22 00:00:00+05:30,19.950000762939453,20.06999969482422,19.799999237060547,19.84000015258789,36919.0,0.0,0.0,0.4009
2024-07-23 00:00:00+05:30,19.850000381469727,20.239999771118164,19.0,19.75,188638.0,0.0,0.0,0.579
2024-07-24 00:00:00+05:30,19.520000457763672,21.719999313354492,19.520000457763672,21.600000381469727,602057.0,0.0,0.0,0.49
2024-07-25 00:00:00+05:30,21.5,23.270000457763672,21.049999237060547,21.739999771118164,791043.0,0.0,0.0,0.5212
2024-07-26 00:00:00+05:30,21.739999771118164,22.190000534057617,21.1200008392334,21.25,112955.0,0.0,0.0,0.5775
2024-07-29 00:00:00+05:30,21.059999465942383,21.459999084472656,20.610000610351562,20.959999084472656,101884.0,0.0,0.0,0.634
2024-07-30 00:00:00+05:30,20.520000457763672,21.649999618530273,20.520000457763672,21.1299991607666,72161.0,0.0,0.0,0.3028
2024-07-31 00:00:00+05:30,21.0,21.43000030517578,20.700000762939453,20.829999923706055,91101.0,0.0,0.0,0.3253
2024-08-01 00:00:00+05:30,21.389999389648438,21.389999389648438,20.25,20.459999084472656,86999.0,0.0,0.0,0.1564
2024-08-02 00:00:00+05:30,20.5,20.959999084472656,19.860000610351562,20.770000457763672,100794.0,0.0,0.0,0.447
2024-08-05 00:00:00+05:30,20.520000457763672,20.520000457763672,19.389999389648438,19.850000381469727,187224.0,0.0,0.0,0.1216
2024-08-06 00:00:00+05:30,20.25,20.389999389648438,19.110000610351562,19.399999618530273,66892.0,0.0,0.0,0.3794
2024-08-07 00:00:00+05:30,19.670000076293945,21.450000762939453,19.020000457763672,20.299999237060547,310962.0,0.0,0.0,0.4256
2024-08-08 00:00:00+05:30,20.049999237060547,20.860000610351562,20.0,20.1200008392334,36935.0,0.0,0.0,0.2719
2024-08-09 00:00:00+05:30,20.530000686645508,22.780000686645508,20.200000762939453,21.829999923706055,923112.0,0.0,0.0,0.4545
2024-08-12 00:00:00+05:30,21.989999771118164,22.399999618530273,21.229999542236328,21.3799991607666,263170.0,0.0,0.0,0.1183
2024-08-13 00:00:00+05:30,21.780000686645508,21.780000686645508,20.200000762939453,20.309999465942383,96181.0,0.0,0.0,0.1224
2024-08-14 00:00:00+05:30,20.3700008392334,20.59000015258789,19.809999465942383,19.940000534057617,41942.0,0.0,0.0,0.5936
2024-08-16 00:00:00+05:30,19.950000762939453,20.440000534057617,19.950000762939453,20.110000610351562,42862.0,0.0,0.0,0.3161
2024-08-19 00:00:00+05:30,20.34000015258789,22.799999237060547,19.84000015258789,22.389999389648438,564336.0,0.0,0.0,0.1762
2024-08-20 00:00:00+05:30,25.0,25.350000381469727,21.739999771118164,23.530000686645508,3481112.0,0.0,0.0,0.4133
2024-08-21 00:00:00+05:30,23.5,24.84000015258789,22.799999237060547,23.040000915527344,896280.0,0.0,0.0,0.562
2024-08-22 00:00:00+05:30,23.3700008392334,23.899999618530273,22.510000228881836,22.610000610351562,161195.0,0.0,0.0,0.2295
2024-08-23 00:00:00+05:30,22.600000381469727,23.489999771118164,21.899999618530273,22.25,367057.0,0.0,0.0,0.4737
2024-08-26 00:00:00+05:30,22.700000762939453,23.450000762939453,22.100000381469727,22.639999389648438,98490.0,0.0,0.0,0.1512
2024-08-27 00:00:00+05:30,22.8799991607666,22.8799991607666,21.020000457763672,21.530000686645508,221554.0,0.0,0.0,0.131
2024-08-28 00:00:00+05:30,21.68000030517578,21.989999771118164,20.81999969482422,20.979999542236328,202537.0,0.0,0.0,0.4188
2024-08-29 00:00:00+05:30,21.190000534057617,21.799999237060547,20.649999618530273,20.729999542236328,139786.0,0.0,0.0,0.4244
2024-08-30 00:00:00+05:30,20.93000030517578,21.440000534057617,20.059999465942383,20.979999542236328,521817.0,0.0,0.0,0.4825
2024-09-02 00:00:00+05:30,21.299999237060547,22.739999771118164,20.850000381469727,22.139999389648438,637951.0,0.0,0.0,0.5357
2024-09-03 00:00:00+05:30,22.540000915527344,22.809999465942383,22.0,22.579999923706055,282024.0,0.0,0.0,0.6855
2024-09-04 00:00:00+05:30,21.6200008392334,22.479999542236328,21.6200008392334,22.010000228881836,91885.0,0.0,0.0,0.4098
2024-09-05 00:00:00+05:30,22.0,22.739999771118164,21.850000381469727,21.979999542236328,185383.0,0.0,0.0,0.2938
2024-09-06 00:00:00+05:30,22.170000076293945,22.489999771118164,21.549999237060547,21.969999313354492,269622.0,0.0,0.0,0.5771
2024-09-09 00:00:00+05:30,21.959999084472656,22.219999313354492,21.520000457763672,21.790000915527344,121701.0,0.0,0.0,0.2625
2024-09-10 00:00:00+05:30,21.729999542236328,22.290000915527344,21.729999542236328,21.950000762939453,64646.0,0.0,0.0,0.3634
2024-09-11 00:00:00+05:30,21.950000762939453,22.469999313354492,21.950000762939453,22.030000686645508,112487.0,0.0,0.0,0.1471
2024-09-12 00:00:00+05:30,22.06999969482422,22.299999237060547,21.450000762939453,21.559999465942383,85942.0,0.0,0.0,0.1152
2024-09-13 00:00:00+05:30,21.8799991607666,22.5,21.600000381469727,21.959999084472656,401079.0,0.0,0.0,0.6776
2024-09-16 00:00:00+05:30,22.3799991607666,22.399999618530273,21.809999465942383,21.829999923706055,85258.0,0.0,0.0,0.6016
2024-09-17 00:00:00+05:30,21.5,22.0,21.5,21.780000686645508,58868.0,0.0,0.0,0.5176
2024-09-18 00:00:00+05:30,21.959999084472656,21.959999084472656,20.799999237060547,21.149999618530273,179999.0,0.0,0.0,0.3454
2024-09-19 00:00:00+05:30,21.43000030517578,21.440000534057617,20.450000762939453,20.530000686645508,138484.0,0.0,0.0,0.204
2024-09-20 00:00:00+05:30,20.989999771118164,21.399999618530273,20.68000030517578,21.09000015258789,123072.0,0.0,0.0,0.1939
2024-09-23 00:00:00+05:30,21.100000381469727,21.100000381469727,20.850000381469727,20.90999984741211,50349.0,0.0,0.0,0.2501
2024-09-24 00:00:00+05:30,20.959999084472656,21.450000762939453,20.649999618530273,20.8700008392334,81450.0,0.0,0.0,0.4295
2024-09-25 00:00:00+05:30,20.979999542236328,20.989999771118164,19.969999313354492,20.020000457763672,267600.0,0.0,0.0,0.5288
2024-09-26 00:00:00+05:30,20.280000686645508,20.489999771118164,19.989999771118164,20.190000534057617,111644.0,0.0,0.0,0.4961
2024-09-27 00:00:00+05:30,20.639999389648438,20.639999389648438,20.020000457763672,20.15999984741211,64691.0,0.0,0.0,0.268
2024-09-30 00:00:00+05:30,20.15999984741211,20.600000381469727,20.0,20.149999618530273,159350.0,0.0,0.0,0.6729
2024-10-01 00:00:00+05:30,20.280000686645508,21.0,20.049999237060547,20.709999084472656,200887.0,0.0,0.0,0.5427
2024-10-03 00:00:00+05:30,20.979999542236328,20.979999542236328,20.110000610351562,20.190000534057617,85454.0,0.0,0.0,0.4326
2024-10-04 00:00:00+05:30,20.190000534057617,20.489999771118164,19.450000762939453,19.610000610351562,139100.0,0.0,0.0,0.467
2024-10-07 00:00:00+05:30,19.8700008392334,19.8700008392334,18.610000610351562,18.770000457763672,107194.0,0.0,0.0,0.3518
2024-10-08 00:00:00+05:30,19.0,19.68000030517578,18.690000534057617,19.280000686645508,68949.0,0.0,0.0,0.2486
2024-10-09 00:00:00+05:30,19.65999984741211,20.65999984741211,19.309999465942383,20.280000686645508,167954.0,0.0,0.0,0.3136
2024-10-10 00:00:00+05:30,20.440000534057617,20.889999389648438,20.149999618530273,20.309999465942383,125314.0,0.0,0.0,0.5547
2024-10-11 00:00:00+05:30,20.440000534057617,20.59000015258789,19.81999969482422,19.920000076293945,61127.0,0.0,0.0,0.1086
2024-10-14 00:00:00+05:30,20.25,20.25,19.649999618530273,19.8799991607666,83934.0,0.0,0.0,0.1696
2024-10-15 00:00:00+05:30,19.549999237060547,20.0,19.520000457763672,19.579999923706055,40402.0,0.0,0.0,0.1276
2024-10-16 00:00:00+05:30,19.75,19.75,19.0,19.270000457763672,79476.0,0.0,0.0,0.1244
2024-10-17 00:00:00+05:30,19.270000457763672,19.469999313354492,18.799999237060547,18.940000534057617,71043.0,0.0,0.0,0.6133
2024-10-18 00:00:00+05:30,18.81999969482422,19.190000534057617,18.649999618530273,19.059999465942383,42771.0,0.0,0.0,0.5222
2024-10-21 00:00:00+05:30,19.440000534057617,19.440000534057617,18.700000762939453,18.719999313354492,23218.0,0.0,0.0,0.3845
2024-10-22 00:00:00+05:30,18.75,18.90999984741211,18.010000228881836,18.049999237060547,31415.0,0.0,0.0,0.1587
2024-10-23 00:00:00+05:30,18.0,18.389999389648438,17.219999313354492,17.520000457763672,145645.0,0.0,0.0,0.395
2024-10-24 00:00:00+05:30,17.329999923706055,17.979999542236328,17.1200008392334,17.84000015258789,76989.0,0.0,0.0,0.3841
2024-10-25 00:00:00+05:30,17.84000015258789,17.850000381469727,17.25,17.399999618530273,49865.0,0.0,0.0,0.2039
2024-10-28 00:00:00+05:30,17.100000381469727,17.8700008392334,17.100000381469727,17.229999542236328,51233.0,0.0,0.0,0.3603
2024-10-29 00:00:00+05:30,17.790000915527344,17.790000915527344,16.90999984741211,17.09000015258789,62044.0,0.0,0.0,0.3391
2024-10-30 00:00:00+05:30,17.450000762939453,17.950000762939453,17.09000015258789,17.709999084472656,50401.0,0.0,0.0,0.4695
2024-10-31 00:00:00+05:30,17.40999984741211,18.5,17.40999984741211,17.959999084472656,68500.0,0.0,0.0,0.4811
2024-11-01 00:00:00+05:30,18.479999542236328,18.770000457763672,18.020000457763672,18.6200008392334,27538.0,0.0,0.0,0.1272
2024-11-04 00:00:00+05:30,19.049999237060547,20.100000381469727,18.889999389648438,19.209999084472656,143263.0,0.0,0.0,0.3248
2024-11-05 00:00:00+05:30,19.260000228881836,19.959999084472656,19.260000228881836,19.3799991607666,76329.0,0.0,0.0,0.4755
2024-11-06 00:00:00+05:30,19.399999618530273,19.690000534057617,18.860000610351562,19.469999313354492,46019.0,0.0,0.0,0.4019
2024-11-07 00:00:00+05:30,19.479999542236328,19.510000228881836,18.920000076293945,19.09000015258789,25913.0,0.0,0.0,0.6139
2024-11-08 00:00:00+05:30,19.190000534057617,19.190000534057617,18.600000381469727,18.770000457763672,35145.0,0.0,0.0,0.4952
2024-11-11 00:00:00+05:30,19.149999618530273,19.299999237060547,18.899999618530273,19.079999923706055,28894.0,0.0,0.0,0.1978
2024-11-12 00:00:00+05:30,19.239999771118164,19.239999771118164,18.0,18.229999542236328,37599.0,0.0,0.0,0.1423
2024-11-13 00:00:00+05:30,18.219999313354492,18.219999313354492,17.110000610351562,17.229999542236328,57046.0,0.0,0.0,0.4855
2024-11-14 00:00:00+05:30,17.579999923706055,17.719999313354492,17.299999237060547,17.579999923706055,23935.0,0.0,0.0,0.1159
2024-11-18 00:00:00+05:30,17.579999923706055,17.700000762939453,16.6200008392334,16.920000076293945,49551.0,0.0,0.0,0.4515
2024-11-19 00:00:00+05:30,17.229999542236328,17.639999389648438,16.770000457763672,16.959999084472656,74298.0,0.0,0.0,0.6641
2024-11-21 00:00:00+05:30,16.799999237060547,17.1200008392334,16.200000762939453,16.329999923706055,54297.0,0.0,0.0,0.4453
2024-11-22 00:00:00+05:30,16.600000381469727,16.84000015258789,16.3700008392334,16.709999084472656,24507.0,0.0,0.0,0.3329
2024-11-25 00:00:00+05:30,16.989999771118164,17.549999237060547,16.989999771118164,17.149999618530273,67404.0,0.0,0.0,0.486
2024-11-26 00:00:00+05:30,17.489999771118164,17.549999237060547,16.200000762939453,17.149999618530273,39957.0,0.0,0.0,0.375
2024-11-27 00:00:00+05:30,17.440000534057617,17.59000015258789,17.15999984741211,17.329999923706055,23814.0,0.0,0.0,0.4274
2024-11-28 00:00:00+05:30,17.690000534057617,18.100000381469727,17.309999465942383,17.719999313354492,55293.0,0.0,0.0,0.6649
2024-11-29 00:00:00+05:30,17.979999542236328,18.399999618530273,17.65999984741211,17.889999389648438,22201.0,0.0,0.0,0.3317
2024-12-02 00:00:00+05:30,18.299999237060547,19.34000015258789,18.010000228881836,18.860000610351562,169219.0,0.0,0.0,0.6767
2024-12-03 00:00:00+05:30,18.959999084472656,19.209999084472656,18.709999084472656,18.989999771118164,68582.0,0.0,0.0,0.6432
2024-12-04 00:00:00+05:30,18.639999389648438,20.0,18.610000610351562,19.0,84265.0,0.0,0.0,0.2175
2024-12-05 00:00:00+05:30,19.0,19.549999237060547,18.700000762939453,19.34000015258789,43020.0,0.0,0.0,0.1416
2024-12-06 00:00:00+05:30,19.489999771118164,19.600000381469727,18.950000762939453,19.149999618530273,65135.0,0.0,0.0,0.1605
2024-12-09 00:00:00+05:30,19.149999618530273,20.75,19.149999618530273,19.700000762939453,265881.0,0.0,0.0,0.1109
2024-12-10 00:00:00+05:30,19.889999389648438,19.93000030517578,19.299999237060547,19.559999465942383,51141.0,0.0,0.0,0.1567
2024-12-11 00:00:00+05:30,19.700000762939453,19.739999771118164,19.25,19.299999237060547,36732.0,0.0,0.0,0.5098
2024-12-12 00:00:00+05:30,19.5,19.5,19.06999969482422,19.209999084472656,86996.0,0.0,0.0,0.1427
2024-12-13 00:00:00+05:30,19.209999084472656,19.479999542236328,18.739999771118164,19.0,44201.0,0.0,0.0,0.2914
2024-12-16 00:00:00+05:30,18.829999923706055,20.1299991607666,18.829999923706055,19.559999465942383,145246.0,0.0,0.0,0.6069
2024-12-17 00:00:00+05:30,19.0,19.639999389648438,18.760000228881836,18.950000762939453,55572.0,0.0,0.0,0.114
2024-12-18 00:00:00+05:30,18.700000762939453,19.43000030517578,18.600000381469727,18.68000030517578,36704.0,0.0,0.0,0.5887
2024-12-19 00:00:00+05:30,18.68000030517578,19.030000686645508,18.459999084472656,18.809999465942383,87725.0,0.0,0.0,0.2691
2024-12-20 00:00:00+05:30,18.989999771118164,19.100000381469727,18.709999084472656,18.75,78285.0,0.0,0.0,0.1709
2024-12-23 00:00:00+05:30,18.75,18.93000030517578,18.100000381469727,18.15999984741211,51379.0,0.0,0.0,0.518
2024-12-24 00:00:00+05:30,18.049999237060547,18.299999237060547,17.309999465942383,17.969999313354492,53752.0,0.0,0.0,0.4774
2024-12-26 00:00:00+05:30,17.520000457763672,18.079999923706055,17.520000457763672,17.780000686645508,24032.0,0.0,0.0,0.6265
2024-12-27 00:00:00+05:30,17.549999237060547,17.989999771118164,17.549999237060547,17.829999923706055,26303.0,0.0,0.0,0.541
2024-12-30 00:00:00+05:30,17.530000686645508,17.920000076293945,17.530000686645508,17.6299991607666,28077.0,0.0,0.0,0.5821
2024-12-31 00:00:00+05:30,17.360000610351562,18.969999313354492,17.350000381469727,18.18000030517578,10838.0,0.0,0.0,0.2692
2025-01-01 00:00:00+05:30,18.200000762939453,18.790000915527344,18.110000610351562,18.18000030517578,79880.0,0.0,0.0,0.2065
2025-01-02 00:00:00+05:30,18.479999542236328,18.68000030517578,18.18000030517578,18.520000457763672,22543.0,0.0,0.0,0.5504
2025-01-03 00:00:00+05:30,18.440000534057617,18.989999771118164,18.170000076293945,18.299999237060547,37626.0,0.0,0.0,0.5841
2025-01-06 00:00:00+05:30,18.170000076293945,18.389999389648438,17.3799991607666,17.440000534057617,42507.0,0.0,0.0,0.6943
2025-01-07 00:00:00+05:30,17.56999969482422,18.149999618530273,17.56999969482422,18.010000228881836,36407.0,0.0,0.0,0.3476
2025-01-08 00:00:00+05:30,18.299999237060547,18.299999237060547,18.0,18.010000228881836,28787.0,0.0,0.0,0.3232
2025-01-09 00:00:00+05:30,18.030000686645508,18.540000915527344,17.5,18.059999465942383,40184.0,0.0,0.0,0.5658
2025-01-10 00:00:00+05:30,18.489999771118164,18.489999771118164,17.0,17.200000762939453,68615.0,0.0,0.0,0.3045
2025-01-13 00:00:00+05:30,17.0,17.600000381469727,16.25,16.889999389648438,145736.0,0.0,0.0,0.6585
2025-01-14 00:00:00+05:30,17.079999923706055,17.280000686645508,16.709999084472656,17.010000228881836,37281.0,0.0,0.0,0.615
2025-01-15 00:00:00+05:30,16.780000686645508,17.3799991607666,16.780000686645508,17.100000381469727,50716.0,0.0,0.0,0.3574
2025-01-16 00:00:00+05:30,17.389999389648438,17.389999389648438,17.0,17.190000534057617,28612.0,0.0,0.0,0.5505
2025-01-17 00:00:00+05:30,17.010000228881836,17.450000762939453,16.5,16.8799991607666,53823.0,0.0,0.0,0.5527
2025-01-20 00:00:00+05:30,17.190000534057617,17.190000534057617,16.889999389648438,17.059999465942383,18396.0,0.0,0.0,0.1619
2025-01-21 00:00:00+05:30,17.059999465942383,17.190000534057617,16.479999542236328,16.510000228881836,43094.0,0.0,0.0,0.6415
2025-01-22 00:00:00+05:30,16.520000457763672,16.8700008392334,16.25,16.59000015258789,17317.0,0.0,0.0,0.4032
2025-01-23 00:00:00+05:30,16.549999237060547,17.5,16.299999237060547,16.559999465942383,99971.0,0.0,0.0,0.5959
2025-01-24 00:00:00+05:30,16.860000610351562,16.860000610351562,14.600000381469727,15.140000343322754,183985.0,0.0,0.0,0.292
2025-01-27 00:00:00+05:30,15.140000343322754,15.140000343322754,14.5,14.539999961853027,430577.0,0.0,0.0,0.6373
2025-01-28 00:00:00+05:30,14.800000190734863,15.949999809265137,14.5,15.390000343322754,97490.0,0.0,0.0,0.3335
2025-01-29 00:00:00+05:30,15.649999618530273,16.399999618530273,15.460000038146973,16.079999923706055,88820.0,0.0,0.0,0.1065
2025-01-30 00:00:00+05:30,16.0,18.200000762939453,16.0,17.829999923706055,197686.0,0.0,0.0,0.6432
2025-01-31 00:00:00+05:30,18.25,20.049999237060547,17.850000381469727,19.479999542236328,491499.0,0.0,0.0,0.1548
2025-02-01 00:00:00+05:30,19.489999771118164,21.200000762939453,18.530000686645508,20.06999969482422,259985.0,0.0,0.0,0.2916
2025-02-03 00:00:00+05:30,20.059999465942383,20.059999465942383,19.5,19.6200008392334,68335.0,0.0,0.0,0.67
2025-02-04 00:00:00+05:30,19.979999542236328,20.25,19.5,19.899999618530273,50915.0,0.0,0.0,0.6704
2025-02-05 00:00:00+05:30,20.0,20.0,19.0,19.239999771118164,45610.0,0.0,0.0,0.4441
2025-02-06 00:00:00+05:30,19.649999618530273,20.799999237060547,18.5,20.43000030517578,263486.0,0.0,0.0,0.4791
2025-02-07 00:00:00+05:30,20.0,20.389999389648438,19.110000610351562,19.5,102317.0,0.0,0.0,0.3691
2025-02-10 00:00:00+05:30,20.0,20.0,19.0,19.350000381469727,47454.0,0.0,0.0,0.2759
2025-02-11 00:00:00+05:30,19.969999313354492,20.600000381469727,19.0,20.280000686645508,297837.0,0.0,0.0,0.2972
2025-02-12 00:00:00+05:30,20.479999542236328,22.690000534057617,20.360000610351562,22.219999313354492,1727835.0,0.0,0.0,0.5035
2025-02-13 00:00:00+05:30,22.18000030517578,23.5,21.200000762939453,22.610000610351562,603448.0,0.0,0.0,0.5514
2025-02-14 00:00:00+05:30,23.399999618530273,23.399999618530273,21.920000076293945,22.43000030517578,244385.0,0.0,0.0,0.5749
2025-02-17 00:00:00+05:30,22.950000762939453,23.25,22.0,22.520000457763672,221842.0,0.0,0.0,0.5738
2025-02-18 00:00:00+05:30,23.489999771118164,23.489999771118164,22.0,22.950000762939453,308089.0,0.0,0.0,0.1547
2025-02-19 00:00:00+05:30,23.290000915527344,27.0,23.010000228881836,25.260000228881836,874064.0,0.0,0.0,0.3967
2025-02-20 00:00:00+05:30,25.5,29.0,25.06999969482422,27.1299991607666,1263696.0,0.0,0.0,0.1345
2025-02-21 00:00:00+05:30,27.799999237060547,31.200000762939453,27.5,30.219999313354492,1149173.0,0.0,0.0,0.4297
2025-02-24 00:00:00+05:30,32.0,36.2599983215332,31.299999237060547,36.2599983215332,5656998.0,0.0,0.0,0.3649
2025-02-25 00:00:00+05:30,35.0,36.0,34.439998626708984,34.439998626708984,219078.0,0.0,0.0,0.6326
2025-02-27 00:00:00+05:30,32.709999084472656,32.709999084472656,32.709999084472656,32.709999084472656,7447.0,0.0,0.0,0.3105
2025-02-28 00:00:00+05:30,31.06999969482422,31.06999969482422,31.06999969482422,31.06999969482422,9825.0,0.0,0.0,0.1702
2025-03-03 00:00:00+05:30,29.510000228881836,29.510000228881836,29.510000228881836,29.510000228881836,89287.0,0.0,0.0,0.1858
2025-03-04 00:00:00+05:30,28.079999923706055,28.079999923706055,28.030000686645508,28.030000686645508,8686.0,0.0,0.0,0.5569
2025-03-05 00:00:00+05:30,26.6200008392334,26.6200008392334,26.6200008392334,26.6200008392334,49996.0,0.0,0.0,0.4709
2025-03-06 00:00:00+05:30,25.280000686645508,25.280000686645508,25.280000686645508,25.280000686645508,8457.0,0.0,0.0,0.1607
2025-03-07 00:00:00+05:30,24.010000228881836,26.540000915527344,24.010000228881836,26.540000915527344,356098.0,0.0,0.0,0.1505
2025-03-10 00:00:00+05:30,27.600000381469727,27.799999237060547,25.209999084472656,25.209999084472656,165006.0,0.0,0.0,0.5206
2025-03-11 00:00:00+05:30,23.950000762939453,23.950000762939453,23.940000534057617,23.940000534057617,213297.0,0.0,0.0,0.1437
2025-03-12 00:00:00+05:30,22.739999771118164,24.100000381469727,22.739999771118164,23.809999465942383,371268.0,0.0,0.0,0.5931
2025-03-13 00:00:00+05:30,23.0,25.0,22.610000610351562,25.0,340195.0,0.0,0.0,0.5237
2025-03-17 00:00:00+05:30,24.049999237060547,24.5,23.75,23.75,78720.0,0.0,0.0,0.1488
2025-03-18 00:00:00+05:30,23.75,23.75,23.75,23.75,0.0,0.0,0.0,0.1509
2025-03-19 00:00:00+05:30,25.450000762939453,25.459999084472656,24.260000228881836,25.459999084472656,63768.0,0.0,0.0,0.692
2025-03-20 00:00:00+05:30,26.639999389648438,26.729999542236328,26.5,26.729999542236328,20941.0,0.0,0.0,0.3246
2025-03-21 00:00:00+05:30,27.700000762939453,28.059999465942383,27.049999237060547,28.059999465942383,98970.0,0.0,0.0,0.3224
2025-03-24 00:00:00+05:30,29.399999618530273,29.459999084472656,28.5,29.459999084472656,15486.0,0.0,0.0,0.5877
2025-03-25 00:00:00+05:30,30.93000030517578,30.93000030517578,30.93000030517578,30.93000030517578,44249.0,0.0,0.0,0.6683
2025-03-26 00:00:00+05:30,31.540000915527344,31.540000915527344,30.309999465942383,31.540000915527344,119962.0,0.0,0.0,0.6916
2025-03-27 00:00:00+05:30,32.16999816894531,32.16999816894531,32.16999816894531,32.16999816894531,30533.0,0.0,0.0,0.552
2025-03-28 00:00:00+05:30,32.810001373291016,32.810001373291016,32.810001373291016,32.810001373291016,28661.0,0.0,0.0,0.3258
2025-04-01 00:00:00+05:30,33.459999084472656,33.459999084472656,33.459999084472656,33.459999084472656,16372.0,0.0,0.0,0.1501
2025-04-02 00:00:00+05:30,34.119998931884766,34.119998931884766,34.119998931884766,34.119998931884766,30920.0,0.0,0.0,0.5663
2025-04-03 00:00:00+05:30,34.79999923706055,34.79999923706055,34.79999923706055,34.79999923706055,22441.0,0.0,0.0,0.435
2025-04-04 00:00:00+05:30,35.4900016784668,35.4900016784668,35.4900016784668,35.4900016784668,37274.0,0.0,0.0,0.3545
2025-04-07 00:00:00+05:30,36.189998626708984,36.189998626708984,36.189998626708984,36.189998626708984,155576.0,0.0,0.0,0.6438
2025-04-08 00:00:00+05:30,36.90999984741211,36.90999984741211,36.90999984741211,36.90999984741211,36527.0,0.0,0.0,0.1667
2025-04-09 00:00:00+05:30,37.63999938964844,37.63999938964844,37.63999938964844,37.63999938964844,46587.0,0.0,0.0,0.3956
2025-04-11 00:00:00+05:30,38.38999938964844,38.38999938964844,38.38999938964844,38.38999938964844,30197.0,0.0,0.0,0.1068
2025-04-15 00:00:00+05:30,39.150001525878906,39.150001525878906,39.150001525878906,39.150001525878906,31442.0,0.0,0.0,0.3812
2025-04-16 00:00:00+05:30,39.93000030517578,39.93000030517578,39.93000030517578,39.93000030517578,23110.0,0.0,0.0,0.1338
2025-04-17 00:00:00+05:30,40.720001220703125,40.720001220703125,40.720001220703125,40.720001220703125,21244.0,0.0,0.0,0.1713
2025-04-21 00:00:00+05:30,39.900001525878906,39.900001525878906,39.900001525878906,39.900001525878906,281187.0,0.0,0.0,0.1705
2025-04-22 00:00:00+05:30,39.099998474121094,39.099998474121094,39.099998474121094,39.099998474121094,272985.0,0.0,0.0,0.4895
2025-04-23 00:00:00+05:30,38.310001373291016,38.310001373291016,38.310001373291016,38.310001373291016,29895.0,0.0,0.0,0.5476
2025-04-24 00:00:00+05:30,37.540000915527344,37.560001373291016,37.540000915527344,37.540000915527344,523065.0,0.0,0.0,0.45
2025-04-25 00:00:00+05:30,36.779998779296875,36.779998779296875,36.779998779296875,36.779998779296875,62507.0,0.0,0.0,0.6773
2025-04-28 00:00:00+05:30,36.040000915527344,36.779998779296875,36.040000915527344,36.040000915527344,261861.0,0.0,0.0,0.3249
2025-04-29 00:00:00+05:30,35.310001373291016,35.310001373291016,35.310001373291016,35.310001373291016,49220.0,0.0,0.0,0.2714
2025-04-30 00:00:00+05:30,34.599998474121094,34.599998474121094,34.599998474121094,34.599998474121094,23775.0,0.0,0.0,0.6212
2025-05-02 00:00:00+05:30,33.900001525878906,33.900001525878906,33.900001525878906,33.900001525878906,8873.0,0.0,0.0,0.2342
2025-05-05 00:00:00+05:30,32.5,33.88999938964844,32.20000076293945,32.20000076293945,864614.0,0.0,0.0,0.6779
2025-05-06 00:00:00+05:30,30.59000015258789,30.59000015258789,30.59000015258789,30.59000015258789,124674.0,0.0,0.0,0.1073
2025-05-07 00:00:00+05:30,29.059999465942383,32.11000061035156,29.059999465942383,30.829999923706055,364545.0,0.0,0.0,0.6819
2025-05-08 00:00:00+05:30,32.369998931884766,32.369998931884766,31.889999389648438,32.36000061035156,199465.0,0.0,0.0,0.1259
2025-05-09 00:00:00+05:30,31.0,33.970001220703125,30.739999771118164,33.95000076293945,161434.0,0.0,0.0,0.6347
2025-05-12 00:00:00+05:30,35.63999938964844,35.63999938964844,35.380001068115234,35.63999938964844,135622.0,0.0,0.0,0.4166
2025-05-13 00:00:00+05:30,37.41999816894531,37.41999816894531,37.41999816894531,37.41999816894531,87196.0,0.0,0.0,0.6958
2025-05-14 00:00:00+05:30,39.290000915527344,39.290000915527344,35.599998474121094,37.7400016784668,1085952.0,0.0,0.0,0.1443
2025-05-15 00:00:00+05:30,36.97999954223633,36.97999954223633,36.97999954223633,36.97999954223633,76078.0,0.0,0.0,0.4323
2025-05-16 00:00:00+05:30,37.5,37.5,37.04999923706055,37.5,194376.0,0.0,0.0,0.6816
2025-05-19 00:00:00+05:30,37.5,37.5,37.099998474121094,37.5,59507.0,0.0,0.0,0.4139
2025-05-20 00:00:00+05:30,38.25,38.25,37.83000183105469,38.25,50707.0,0.0,0.0,0.4776
2025-05-21 00:00:00+05:30,39.0099983215332,39.0099983215332,39.0099983215332,39.0099983215332,11730.0,0.0,0.0,0.5174
2025-05-22 00:00:00+05:30,39.790000915527344,39.790000915527344,39.790000915527344,39.790000915527344,21454.0,0.0,0.0,0.3727
2025-05-23 00:00:00+05:30,40.58000183105469,40.58000183105469,40.58000183105469,40.58000183105469,10670.0,0.0,0.0,0.4765
2025-05-26 00:00:00+05:30,41.38999938964844,41.38999938964844,41.38999938964844,41.38999938964844,8638.0,0.0,0.0,0.4506
2025-05-27 00:00:00+05:30,42.209999084472656,42.209999084472656,42.209999084472656,42.209999084472656,12604.0,0.0,0.0,0.6407
2025-05-28 00:00:00+05:30,43.04999923706055,43.04999923706055,43.04999923706055,43.04999923706055,17800.0,0.0,0.0,0.1273
2025-05-29 00:00:00+05:30,43.90999984741211,43.90999984741211,43.90999984741211,43.90999984741211,8293.0,0.0,0.0,0.2686
2025-05-30 00:00:00+05:30,43.029998779296875,44.779998779296875,43.029998779296875,43.029998779296875,860078.0,0.0,0.0,0.6702
2025-06-02 00:00:00+05:30,42.15999984741211,42.15999984741211,42.15999984741211,42.15999984741211,95544.0,0.0,0.0,0.6342
2025-06-03 00:00:00+05:30,41.310001373291016,41.310001373291016,41.310001373291016,41.310001373291016,25827.0,0.0,0.0,0.3734
2025-06-04 00:00:00+05:30,40.47999954223633,40.47999954223633,40.47999954223633,40.47999954223633,37980.0,0.0,0.0,0.4721
2025-06-05 00:00:00+05:30,39.66999816894531,39.66999816894531,39.66999816894531,39.66999816894531,47978.0,0.0,0.0,0.2664
2025-06-06 00:00:00+05:30,38.869998931884766,38.869998931884766,38.869998931884766,38.869998931884766,21615.0,0.0,0.0,0.2129
2025-06-09 00:00:00+05:30,39.63999938964844,39.63999938964844,38.09000015258789,39.63999938964844,212381.0,0.0,0.0,0.3782
2025-06-10 00:00:00+05:30,38.84000015258789,38.84000015258789,38.84000015258789,38.84000015258789,59702.0,0.0,0.0,0.312
2025-06-11 00:00:00+05:30,38.060001373291016,38.060001373291016,38.060001373291016,38.060001373291016,41232.0,0.0,0.0,0.4502
2025-06-12 00:00:00+05:30,37.290000915527344,37.290000915527344,37.290000915527344,37.290000915527344,170845.0,0.0,0.0,0.1466
2025-06-13 00:00:00+05:30,36.540000915527344,36.540000915527344,36.540000915527344,36.540000915527344,38358.0,0.0,0.0,0.6846
2025-06-16 00:00:00+05:30,35.79999923706055,35.79999923706055,35.79999923706055,35.79999923706055,7095.0,0.0,0.0,0.6917
2025-06-17 00:00:00+05:30,35.08000183105469,35.08000183105469,35.08000183105469,35.08000183105469,46973.0,0.0,0.0,0.5189
2025-06-18 00:00:00+05:30,34.369998931884766,35.779998779296875,34.369998931884766,34.369998931884766,675387.0,0.0,0.0,0.4217
2025-06-19 00:00:00+05:30,33.68000030517578,33.68000030517578,33.68000030517578,33.68000030517578,126661.0,0.0,0.0,0.2857
2025-06-20 00:00:00+05:30,33.0,33.0,33.0,33.0,440710.0,0.0,0.0,0.5883
2025-06-23 00:00:00+05:30,31.350000381469727,31.350000381469727,31.350000381469727,31.350000381469727,89928.0,0.0,0.0,0.5108
2025-06-24 00:00:00+05:30,29.780000686645508,32.90999984741211,29.780000686645508,31.709999084472656,820012.0,0.0,0.0,0.1976
2025-06-25 00:00:00+05:30,30.600000381469727,32.400001525878906,30.1200008392334,31.829999923706055,277473.0,0.0,0.0,0.6466
2025-06-26 00:00:00+05:30,32.0,32.900001525878906,31.149999618530273,31.329999923706055,46820.0,0.0,0.0,0.5935
2025-06-27 00:00:00+05:30,30.700000762939453,32.88999938964844,30.700000762939453,32.880001068115234,96552.0,0.0,0.0,0.6699
2025-06-30 00:00:00+05:30,33.400001525878906,34.52000045776367,33.400001525878906,34.52000045776367,158910.0,0.0,0.0,0.5354
2025-07-01 00:00:00+05:30,36.2400016784668,36.2400016784668,35.0099983215332,35.150001525878906,265582.0,0.0,0.0,0.468
2025-07-02 00:00:00+05:30,36.0,36.0,33.38999938964844,33.75,285130.0,0.0,0.0,0.3509
2025-07-03 00:00:00+05:30,33.400001525878906,34.25,32.06999969482422,32.13999938964844,140776.0,0.0,0.0,0.6596
2025-07-04 00:00:00+05:30,31.850000381469727,32.5,31.049999237060547,32.06999969482422,63461.0,0.0,0.0,0.6196
2025-07-07 00:00:00+05:30,31.399999618530273,32.689998626708984,31.0,32.11000061035156,32457.0,0.0,0.0,0.1271
2025-07-08 00:00:00+05:30,31.989999771118164,32.70000076293945,30.649999618530273,32.0,22583.0,0.0,0.0,0.1158
2025-07-09 00:00:00+05:30,32.0,32.900001525878906,31.100000381469727,31.420000076293945,45210.0,0.0,0.0,0.3259
2025-07-10 00:00:00+05:30,31.510000228881836,32.45000076293945,31.0,31.219999313354492,71143.0,0.0,0.0,0.5863
2025-07-11 00:00:00+05:30,32.20000076293945,32.20000076293945,31.0,31.75,35786.0,0.0,0.0,0.6924
2025-07-14 00:00:00+05:30,32.2400016784668,32.2400016784668,31.06999969482422,31.56999969482422,16558.0,0.0,0.0,0.1903
2025-07-15 00:00:00+05:30,31.56999969482422,32.099998474121094,30.959999084472656,31.93000030517578,48930.0,0.0,0.0,0.4565
2025-07-16 00:00:00+05:30,32.0,33.52000045776367,32.0,33.52000045776367,29399.0,0.0,0.0,0.3285
2025-07-17 00:00:00+05:30,35.099998474121094,35.189998626708984,35.0,35.189998626708984,269257.0,0.0,0.0,0.6819
2025-07-18 00:00:00+05:30,34.220001220703125,36.939998626708984,34.099998474121094,36.939998626708984,145115.0,0.0,0.0,0.6053
2025-07-21 00:00:00+05:30,35.5099983215332,38.0,35.09000015258789,35.91999816894531,556017.0,0.0,0.0,0.603
2025-07-22 00:00:00+05:30,35.20000076293945,35.20000076293945,35.20000076293945,35.20000076293945,53617.0,0.0,0.0,0.3812
2025-07-23 00:00:00+05:30,34.4900016784668,34.4900016784668,34.4900016784668,34.4900016784668,3055.0,0.0,0.0,0.3489
2025-07-24 00:00:00+05:30,33.79999923706055,33.79999923706055,33.79999923706055,33.79999923706055,927.0,0.0,0.0,0.264
2025-07-25 00:00:00+05:30,33.119998931884766,33.119998931884766,33.119998931884766,33.119998931884766,25133.0,0.0,0.0,0.1338
2025-07-28 00:00:00+05:30,32.45000076293945,32.45000076293945,32.45000076293945,32.45000076293945,17643.0,0.0,0.0,0.6188
2025-07-29 00:00:00+05:30,33.09000015258789,33.09000015258789,32.45000076293945,33.09000015258789,95494.0,0.0,0.0,0.5877
2025-07-30 00:00:00+05:30,33.04999923706055,33.689998626708984,33.0,33.04999923706055,14824.0,0.0,0.0,0.6998
2025-07-31 00:00:00+05:30,33.45000076293945,33.45000076293945,33.0,33.45000076293945,17210.0,0.0,0.0,0.698
2025-08-01 00:00:00+05:30,33.599998474121094,33.599998474121094,33.599998474121094,33.599998474121094,24953.0,0.0,0.0,0.4333
2025-08-04 00:00:00+05:30,34.27000045776367,34.27000045776367,33.0,34.27000045776367,14652.0,0.0,0.0,0.5614
2025-08-05 00:00:00+05:30,34.880001068115234,34.91999816894531,34.880001068115234,34.880001068115234,13276.0,0.0,0.0,0.6669
2025-08-06 00:00:00+05:30,34.18000030517578,34.880001068115234,34.18000030517578,34.18000030517578,1591.0,0.0,0.0,0.6098
2025-08-07 00:00:00+05:30,33.4900016784668,33.9900016784668,33.4900016784668,33.4900016784668,118.0,0.0,0.0,0.2484
2025-08-08 00:00:00+05:30,33.0,33.4900016784668,32.81999969482422,33.0,32051.0,0.0,0.0,0.3703
2025-08-11 00:00:00+05:30,33.0,33.0,32.40999984741211,33.0,4094.0,0.0,0.0,0.1775
2025-08-12 00:00:00+05:30,32.34000015258789,33.0,32.34000015258789,32.34000015258789,4823.0,0.0,0.0,0.6724
2025-08-13 00:00:00+05:30,31.700000762939453,32.5,31.700000762939453,31.700000762939453,24098.0,0.0,0.0,0.4637
2025-08-14 00:00:00+05:30,31.059999465942383,31.110000610351562,31.059999465942383,31.059999465942383,3650.0,0.0,0.0,0.2372
2025-08-18 00:00:00+05:30,30.43000030517578,31.209999084472656,30.43000030517578,30.43000030517578,14696.0,0.0,0.0,0.503
2025-08-19 00:00:00+05:30,31.030000686645508,31.030000686645508,30.610000610351562,31.030000686645508,53106.0,0.0,0.0,0.4709
2025-08-20 00:00:00+05:30,31.600000381469727,31.649999618530273,31.489999771118164,31.600000381469727,16197.0,0.0,0.0,0.3149
2025-08-21 00:00:00+05:30,32.22999954223633,32.22999954223633,32.0,32.22999954223633,24766.0,0.0,0.0,0.1681
2025-08-22 00:00:00+05:30,32.869998931884766,32.869998931884766,32.869998931884766,32.869998931884766,2601.0,0.0,0.0,0.5029
2025-08-25 00:00:00+05:30,33.0,33.52000045776367,32.97999954223633,33.0,46052.0,0.0,0.0,0.4122
2025-08-26 00:00:00+05:30,32.34000015258789,32.34000015258789,32.34000015258789,32.34000015258789,47021.0,0.0,0.0,0.5634
2025-08-28 00:00:00+05:30,31.690000534057617,31.75,31.690000534057617,31.690000534057617,13156.0,0.0,0.0,0.4121
2025-08-29 00:00:00+05:30,31.100000381469727,31.600000381469727,31.049999237060547,31.100000381469727,41353.0,0.0,0.0,0.6113
2025-09-01 00:00:00+05:30,31.40999984741211,32.20000076293945,29.6299991607666,31.15999984741211,49878.0,0.0,0.0,0.4311
2025-09-02 00:00:00+05:30,30.149999618530273,31.520000457763672,30.0,30.170000076293945,27743.0,0.0,0.0,0.4366
2025-09-03 00:00:00+05:30,30.0,30.68000030517578,29.149999618530273,30.18000030517578,34576.0,0.0,0.0,0.626
2025-09-04 00:00:00+05:30,29.950000762939453,30.899999618530273,29.200000762939453,29.530000686645508,30932.0,0.0,0.0,0.3421
2025-09-05 00:00:00+05:30,29.56999969482422,30.0,29.0,29.610000610351562,16345.0,0.0,0.0,0.1804
2025-09-08 00:00:00+05:30,29.610000610351562,31.06999969482422,29.5,30.270000457763672,8810.0,0.0,0.0,0.1173
2025-09-09 00:00:00+05:30,29.799999237060547,30.8700008392334,29.260000228881836,30.0,47216.0,0.0,0.0,0.5531
2025-09-10 00:00:00+05:30,29.510000228881836,31.0,29.399999618530273,30.5,23235.0,0.0,0.0,0.4722
2025-09-11 00:00:00+05:30,29.899999618530273,31.0,29.5,30.600000381469727,20208.0,0.0,0.0,0.5224
2025-09-12 00:00:00+05:30,30.260000228881836,31.40999984741211,30.209999084472656,31.030000686645508,16174.0,0.0,0.0,0.2278
2025-09-15 00:00:00+05:30,32.5,37.22999954223633,32.5,33.970001220703125,898722.0,0.0,0.0,0.1818
2025-09-16 00:00:00+05:30,34.0,35.9900016784668,33.599998474121094,34.869998931884766,149365.0,0.0,0.0,0.1087
2025-09-17 00:00:00+05:30,35.0,35.0,32.20000076293945,32.849998474121094,112132.0,0.0,0.0,0.3104
2025-09-18 00:00:00+05:30,32.79999923706055,36.18000030517578,32.2599983215332,34.5,132921.0,0.0,0.0,0.454
2025-09-19 00:00:00+05:30,34.4900016784668,35.95000076293945,33.0,34.790000915527344,65706.0,0.0,0.0,0.3353
2025-09-22 00:00:00+05:30,35.45000076293945,35.45000076293945,33.0099983215332,33.130001068115234,36939.0,0.0,0.0,0.3625
2025-09-23 00:00:00+05:30,33.0,34.599998474121094,32.4900016784668,32.86000061035156,572020.0,0.0,0.0,0.6425
2025-09-24 00:00:00+05:30,33.5,33.900001525878906,32.0,32.20000076293945,57140.0,0.0,0.0,0.309
2025-09-25 00:00:00+05:30,33.0099983215332,33.060001373291016,31.299999237060547,32.029998779296875,36075.0,0.0,0.0,0.4084
2025-09-26 00:00:00+05:30,32.029998779296875,33.029998779296875,31.200000762939453,31.3799991607666,23145.0,0.0,0.0,0.5702
2025-09-29 00:00:00+05:30,30.549999237060547,33.0,30.549999237060547,30.93000030517578,57589.0,0.0,0.0,0.3379
2025-09-30 00:00:00+05:30,30.549999237060547,31.950000762939453,30.549999237060547,30.959999084472656,28094.0,0.0,0.0,0.4733
2025-10-01 00:00:00+05:30,30.100000381469727,31.09000015258789,29.200000762939453,30.549999237060547,38738.0,0.0,0.0,0.6174
2025-10-03 00:00:00+05:30,29.5,33.5,29.5,33.099998474121094,85307.0,0.0,0.0,0.6697
2025-10-06 00:00:00+05:30,32.5099983215332,33.790000915527344,32.5,32.52000045776367,37376.0,0.0,0.0,0.1882
2025-10-07 00:00:00+05:30,32.099998474121094,33.0,32.0099983215332,32.2599983215332,35119.0,0.0,0.0,0.656
2025-10-08 00:00:00+05:30,32.97999954223633,33.0,31.0,31.56999969482422,46363.0,0.0,0.0,0.3953
2025-10-09 00:00:00+05:30,31.520000457763672,33.43000030517578,31.010000228881836,31.920000076293945,29561.0,0.0,0.0,0.2549
2025-10-10 00:00:00+05:30,31.200000762939453,32.599998474121094,31.200000762939453,31.489999771118164,14397.0,0.0,0.0,0.3755
2025-10-13 00:00:00+05:30,31.010000228881836,31.510000228881836,30.010000228881836,30.18000030517578,48814.0,0.0,0.0,0.688
2025-10-14 00:00:00+05:30,30.8700008392334,31.0,29.850000381469727,30.219999313354492,71252.0,0.0,0.0,0.3956
2025-10-15 00:00:00+05:30,29.75,30.90999984741211,29.6299991607666,29.90999984741211,40992.0,0.0,0.0,0.2973
2025-10-16 00:00:00+05:30,30.049999237060547,33.02000045776367,30.049999237060547,30.940000534057617,141910.0,0.0,0.0,0.48
2025-10-17 00:00:00+05:30,30.530000686645508,30.899999618530273,29.399999618530273,29.709999084472656,75588.0,0.0,0.0,0.2441
2025-10-20 00:00:00+05:30,29.110000610351562,30.5,29.110000610351562,29.899999618530273,25277.0,0.0,0.0,0.1455
2025-10-21 00:00:00+05:30,30.200000762939453,31.0,29.0,29.81999969482422,16281.0,0.0,0.0,0.1773
2025-10-23 00:00:00+05:30,29.420000076293945,30.0,29.420000076293945,29.889999389648438,11742.0,0.0,0.0,0.1768
2025-10-24 00:00:00+05:30,29.6299991607666,30.0,29.5,29.940000534057617,24142.0,0.0,0.0,0.1911
2025-10-27 00:00:00+05:30,29.559999465942383,29.989999771118164,29.020000457763672,29.790000915527344,37934.0,0.0,0.0,0.1833
2025-10-28 00:00:00+05:30,29.299999237060547,29.920000076293945,29.270000457763672,29.799999237060547,31096.0,0.0,0.0,0.4845
2025-10-29 00:00:00+05:30,29.799999237060547,30.170000076293945,29.43000030517578,29.549999237060547,18764.0,0.0,0.0,0.2091
2025-10-30 00:00:00+05:30,29.190000534057617,30.469999313354492,29.190000534057617,29.790000915527344,31172.0,0.0,0.0,0.3074
2025-10-31 00:00:00+05:30,29.329999923706055,30.0,29.0,29.139999389648438,19506.0,0.0,0.0,0.6381
2025-11-03 00:00:00+05:30,29.200000762939453,29.899999618530273,29.190000534057617,29.299999237060547,11459.0,0.0,0.0,0.3844
2025-11-04 00:00:00+05:30,29.389999389648438,29.389999389648438,27.350000381469727,28.260000228881836,25781.0,0.0,0.0,0.5005
2025-11-06 00:00:00+05:30,28.299999237060547,28.899999618530273,28.030000686645508,28.5,27537.0,0.0,0.0,0.2034
2025-11-07 00:00:00+05:30,27.5,28.799999237060547,27.049999237060547,28.15999984741211,36353.0,0.0,0.0,0.2154
2025-11-10 00:00:00+05:30,27.170000076293945,30.690000534057617,27.170000076293945,29.219999313354492,28887.0,0.0,0.0,0.1245
2025-11-11 00:00:00+05:30,29.360000610351562,29.3700008392334,28.399999618530273,28.940000534057617,12152.0,0.0,0.0,0.2014
2025-11-12 00:00:00+05:30,28.93000030517578,29.09000015258789,28.40999984741211,28.8700008392334,7515.0,0.0,0.0,0.2672
2025-11-13 00:00:00+05:30,28.25,29.489999771118164,28.0,29.020000457763672,111427.0,0.0,0.0,0.2062
2025-11-14 00:00:00+05:30,29.489999771118164,30.0,28.600000381469727,29.290000915527344,22137.0,0.0,0.0,0.1532
2025-11-17 00:00:00+05:30,30.0,30.190000534057617,29.5,29.899999618530273,25781.0,0.0,0.0,0.1724
2025-11-18 00:00:00+05:30,29.700000762939453,30.0,29.190000534057617,29.729999542236328,38362.0,0.0,0.0,0.3765
2025-11-19 00:00:00+05:30,30.5,32.0,29.25,29.8700008392334,123417.0,0.0,0.0,0.2238
2025-11-20 00:00:00+05:30,30.5,30.5,29.15999984741211,29.729999542236328,84265.0,0.0,0.0,0.3186
2025-11-21 00:00:00+05:30,29.170000076293945,30.0,28.299999237060547,29.1299991607666,96140.0,0.0,0.0,0.4021
2025-11-24 00:00:00+05:30,28.299999237060547,29.190000534057617,28.0,28.239999771118164,32501.0,0.0,0.0,0.5142
2025-11-25 00:00:00+05:30,27.329999923706055,29.899999618530273,27.329999923706055,28.790000915527344,168119.0,0.0,0.0,0.1236
2025-11-26 00:00:00+05:30,30.850000381469727,30.850000381469727,28.200000762939453,28.8799991607666,110489.0,0.0,0.0,0.5796
2025-11-27 00:00:00+05:30,29.940000534057617,30.399999618530273,28.309999465942383,29.799999237060547,66309.0,0.0,0.0,0.4767
2025-11-28 00:00:00+05:30,30.100000381469727,30.65999984741211,29.299999237060547,30.209999084472656,15229.0,0.0,0.0,0.1491
2025-12-01 00:00:00+05:30,29.899999618530273,31.479999542236328,29.190000534057617,29.75,22785.0,0.0,0.0,0.6241
2025-12-02 00:00:00+05:30,29.020000457763672,30.8700008392334,29.020000457763672,29.690000534057617,41841.0,0.0,0.0,0.6525
2025-12-03 00:00:00+05:30,30.59000015258789,30.600000381469727,29.260000228881836,30.09000015258789,36203.0,0.0,0.0,0.1366
2025-12-04 00:00:00+05:30,30.920000076293945,30.920000076293945,29.950000762939453,29.989999771118164,34798.0,0.0,0.0,0.2661
2025-12-05 00:00:00+05:30,30.790000915527344,30.790000915527344,29.549999237060547,30.139999389648438,27776.0,0.0,0.0,0.5837
2025-12-08 00:00:00+05:30,30.010000228881836,30.329999923706055,29.260000228881836,29.989999771118164,34446.0,0.0,0.0,0.549
2025-12-09 00:00:00+05:30,29.799999237060547,30.84000015258789,29.799999237060547,30.280000686645508,118916.0,0.0,0.0,0.2107
2025-12-10 00:00:00+05:30,30.899999618530273,31.520000457763672,30.209999084472656,31.020000457763672,36752.0,0.0,0.0,0.2256
2025-12-11 00:00:00+05:30,31.290000915527344,32.0099983215332,30.799999237060547,31.06999969482422,26789.0,0.0,0.0,0.3223
2025-12-12 00:00:00+05:30,31.90999984741211,31.979999542236328,30.950000762939453,31.170000076293945,38074.0,0.0,0.0,0.3907
2025-12-15 00:00:00+05:30,30.600000381469727,31.989999771118164,30.0,31.389999389648438,97094.0,0.0,0.0,0.471
2025-12-16 00:00:00+05:30,30.65999984741211,31.639999389648438,30.65999984741211,31.010000228881836,23626.0,0.0,0.0,0.3213
2025-12-17 00:00:00+05:30,31.260000228881836,31.469999313354492,30.549999237060547,30.56999969482422,23093.0,0.0,0.0,0.3775
2025-12-18 00:00:00+05:30,31.75,31.75,30.190000534057617,30.200000762939453,26185.0,0.0,0.0,0.5485
2025-12-19 00:00:00+05:30,31.059999465942383,31.059999465942383,30.5,30.600000381469727,15166.0,0.0,0.0,0.122
2025-12-22 00:00:00+05:30,31.079999923706055,31.479999542236328,30.600000381469727,31.18000030517578,38224.0,0.0,0.0,0.2515
2025-12-23 00:00:00+05:30,31.700000762939453,31.700000762939453,30.649999618530273,30.860000610351562,26809.0,0.0,0.0,0.528
2025-12-24 00:00:00+05:30,31.0,31.8799991607666,30.899999618530273,30.989999771118164,25441.0,0.0,0.0,0.6371
2025-12-26 00:00:00+05:30,31.610000610351562,32.29999923706055,30.899999618530273,30.940000534057617,66861.0,0.0,0.0,0.407
2025-12-29 00:00:00+05:30,31.559999465942383,33.88999938964844,31.5,31.8700008392334,80562.0,0.0,0.0,0.4193
2025-12-30 00:00:00+05:30,31.399999618530273,32.459999084472656,30.889999389648438,31.65999984741211,14838.0,0.0,0.0,0.1643
2025-12-31 00:00:00+05:30,33.20000076293945,35.0,31.290000915527344,32.720001220703125,113349.0,0.0,0.0,0.3684
2026-01-01 00:00:00+05:30,32.720001220703125,33.09000015258789,31.5,31.700000762939453,34302.0,0.0,0.0,0.4196
2026-01-02 00:00:00+05:30,33.0,33.0,31.5,31.809999465942383,18253.0,0.0,0.0,0.2455
2026-01-05 00:00:00+05:30,31.700000762939453,33.29999923706055,31.399999618530273,31.610000610351562,21020.0,0.0,0.0,0.2615
2026-01-06 00:00:00+05:30,33.25,33.25,31.100000381469727,31.309999465942383,7569.0,0.0,0.0,0.3264
2026-01-07 00:00:00+05:30,31.299999237060547,31.979999542236328,30.899999618530273,30.90999984741211,17731.0,0.0,0.0,0.112
2026-01-08 00:00:00+05:30,32.0099983215332,32.0099983215332,30.799999237060547,30.799999237060547,19855.0,0.0,0.0,0.2932
2026-01-09 00:00:00+05:30,32.31999969482422,32.31999969482422,30.899999618530273,30.90999984741211,22220.0,0.0,0.0,0.2269
2026-01-12 00:00:00+05:30,30.90999984741211,31.5,29.200000762939453,30.5,15151.0,0.0,0.0,0.2965
2026-01-13 00:00:00+05:30,30.6299991607666,31.8700008392334,30.5,30.5,21838.0,0.0,0.0,0.1719
2026-01-14 00:00:00+05:30,32.97999954223633,32.97999954223633,30.469999313354492,30.540000915527344,33342.0,0.0,0.0,0.6343
2026-01-16 00:00:00+05:30,31.149999618530273,31.200000762939453,29.25,30.6299991607666,8907.0,0.0,0.0,0.4562
2026-01-19 00:00:00+05:30,30.690000534057617,35.5,30.18000030517578,34.18000030517578,299482.0,0.0,0.0,0.5075
2026-01-20 00:00:00+05:30,34.290000915527344,34.9900016784668,30.299999237060547,30.520000457763672,99526.0,0.0,0.0,0.5735
2026-01-21 00:00:00+05:30,29.200000762939453,31.799999237060547,29.200000762939453,30.520000457763672,38103.0,0.0,0.0,0.3991
2026-01-22 00:00:00+05:30,33.5,33.5,30.510000228881836,30.860000610351562,12101.0,0.0,0.0,0.1522
2026-01-23 00:00:00+05:30,30.860000610351562,32.0,30.5,30.559999465942383,23844.0,0.0,0.0,0.4223
2026-01-27 00:00:00+05:30,30.559999465942383,31.540000915527344,30.5,30.670000076293945,37275.0,0.0,0.0,0.4521
2026-01-28 00:00:00+05:30,30.510000228881836,31.5,30.510000228881836,30.760000228881836,18822.0,0.0,0.0,0.5473
2026-01-29 00:00:00+05:30,29.399999618530273,32.04999923706055,29.399999618530273,31.34000015258789,84754.0,0.0,0.0,0.359
2026-01-30 00:00:00+05:30,31.899999618530273,31.899999618530273,30.0,30.59000015258789,107170.0,0.0,0.0,0.1765
2026-02-02 00:00:00+05:30,29.450000762939453,31.579999923706055,29.450000762939453,30.200000762939453,46316.0,0.0,0.0,0.2703
2026-02-03 00:00:00+05:30,29.25,31.489999771118164,29.25,30.5,27970.0,0.0,0.0,0.3178
2026-02-04 00:00:00+05:30,31.260000228881836,31.440000534057617,30.25,30.700000762939453,106181.0,0.0,0.0,0.4876
2026-02-05 00:00:00+05:30,30.149999618530273,31.139999389648438,30.100000381469727,30.5,46235.0,0.0,0.0,0.4425
2026-02-06 00:00:00+05:30,30.489999771118164,31.0,29.5,30.540000915527344,20538.0,0.0,0.0,0.3137
2026-02-09 00:00:00+05:30,30.540000915527344,31.600000381469727,29.780000686645508,31.260000228881836,19365.0,0.0,0.0,0.6919
2026-02-10 00:00:00+05:30,31.510000228881836,31.510000228881836,30.709999084472656,31.020000457763672,18312.0,0.0,0.0,0.4635
2026-02-11 00:00:00+05:30,30.549999237060547,31.299999237060547,30.5,30.6299991607666,45923.0,0.0,0.0,0.2423
2026-02-12 00:00:00+05:30,31.479999542236328,31.479999542236328,30.40999984741211,31.010000228881836,25587.0,0.0,0.0,0.1611
2026-02-13 00:00:00+05:30,31.389999389648438,31.389999389648438,30.15999984741211,30.6299991607666,27803.0,0.0,0.0,0.1917
2026-02-16 00:00:00+05:30,31.5,31.5,29.649999618530273,31.1200008392334,64012.0,0.0,0.0,0.2476
2026-02-17 00:00:00+05:30,31.510000228881836,31.989999771118164,30.799999237060547,31.040000915527344,31933.0,0.0,0.0,0.1964
2026-02-18 00:00:00+05:30,30.260000228881836,31.350000381469727,30.260000228881836,31.030000686645508,23347.0,0.0,0.0,0.2119
2026-02-19 00:00:00+05:30,30.299999237060547,31.239999771118164,30.299999237060547,30.579999923706055,30880.0,0.0,0.0,0.2711
2026-02-20 00:00:00+05:30,30.700000762939453,31.280000686645508,30.610000610351562,31.06999969482422,318708.0,0.0,0.0,0.204
2026-02-23 00:00:00+05:30,31.190000534057617,32.47999954223633,30.700000762939453,31.780000686645508,283684.0,0.0,0.0,0.6381
2026-02-24 00:00:00+05:30,32.45000076293945,34.900001525878906,31.5,34.5,300634.0,0.0,0.0,0.1481
2026-02-25 00:00:00+05:30,36.70000076293945,40.380001068115234,35.5,37.15999984741211,747491.0,0.0,0.0,0.4147
2026-02-26 00:00:00+05:30,37.5,39.0,35.20000076293945,38.47999954223633,193002.0,0.0,0.0,0.3462
2026-02-27 00:00:00+05:30,38.5,40.349998474121094,34.04999923706055,35.540000915527344,270807.0,0.0,0.0,0.6894
2026-03-02 00:00:00+05:30,35.5,35.5,32.25,32.95000076293945,129760.0,0.0,0.0,0.1672
2026-03-04 00:00:00+05:30,32.099998474121094,35.349998474121094,32.099998474121094,33.869998931884766,57382.0,0.0,0.0,0.3387
2026-03-05 00:00:00+05:30,34.790000915527344,35.31999969482422,32.31999969482422,34.31999969482422,51213.0,0.0,0.0,0.6817
2026-03-06 00:00:00+05:30,35.34000015258789,38.47999954223633,34.97999954223633,35.880001068115234,227477.0,0.0,0.0,0.6193
2026-03-09 00:00:00+05:30,35.869998931884766,35.869998931884766,33.75,34.560001373291016,38380.0,0.0,0.0,0.5902
2026-03-10 00:00:00+05:30,36.79999923706055,41.470001220703125,35.029998779296875,38.849998474121094,418410.0,0.0,0.0,0.2547
2026-03-11 00:00:00+05:30,38.849998474121094,42.0,36.7599983215332,39.40999984741211,428693.0,0.0,0.0,0.2025
2026-03-12 00:00:00+05:30,39.79999923706055,39.79999923706055,35.099998474121094,36.18000030517578,504491.0,0.0,0.0,0.5012
2026-03-13 00:00:00+05:30,36.18000030517578,39.0,35.599998474121094,36.7599983215332,130190.0,0.0,0.0,0.6576
2026-03-16 00:00:00+05:30,35.720001220703125,36.529998779296875,34.20000076293945,35.22999954223633,207771.0,0.0,0.0,0.4341
2026-03-17 00:00:00+05:30,35.2599983215332,36.099998474121094,34.11000061035156,34.33000183105469,85843.0,0.0,0.0,0.443
2026-03-18 00:00:00+05:30,34.84000015258789,35.0,34.0,34.2599983215332,59459.0,0.0,0.0,0.268
2026-03-19 00:00:00+05:30,33.900001525878906,34.77000045776367,33.5,33.56999969482422,83212.0,0.0,0.0,0.5617
2026-03-20 00:00:00+05:30,33.310001373291016,34.0,32.90999984741211,32.97999954223633,61193.0,0.0,0.0,0.2122
2026-03-23 00:00:00+05:30,32.900001525878906,33.900001525878906,29.100000381469727,30.010000228881836,347825.0,0.0,0.0,0.2942
2026-03-24 00:00:00+05:30,29.799999237060547,31.540000915527344,29.799999237060547,31.190000534057617,115420.0,0.0,0.0,0.3553
2026-03-25 00:00:00+05:30,30.799999237060547,31.950000762939453,30.799999237060547,31.020000457763672,66919.0,0.0,0.0,0.4046
2026-03-27 00:00:00+05:30,31.020000457763672,31.780000686645508,30.399999618530273,30.459999084472656,76320.0,0.0,0.0,0.2454
2026-03-30 00:00:00+05:30,30.899999618530273,32.0,28.559999465942383,29.75,97814.0,0.0,0.0,0.1689
2026-04-01 00:00:00+05:30,30.25,31.790000915527344,30.0,30.229999542236328,99485.0,0.0,0.0,0.4664
2026-04-02 00:00:00+05:30,30.239999771118164,30.510000228881836,29.799999237060547,30.15999984741211,56852.0,0.0,0.0,0.2732
2026-04-06 00:00:00+05:30,30.0,30.700000762939453,30.0,30.329999923706055,47909.0,0.0,0.0,0.4487
2026-04-07 00:00:00+05:30,30.329999923706055,30.5,30.0,30.25,28681.0,0.0,0.0,0.1926
2026-04-08 00:00:00+05:30,31.200000762939453,31.489999771118164,30.299999237060547,30.399999618530273,101867.0,0.0,0.0,0.3887
2026-04-09 00:00:00+05:30,30.059999465942383,30.93000030517578,30.059999465942383,30.719999313354492,16407.0,0.0,0.0,0.4196
2026-04-10 00:00:00+05:30,31.40999984741211,33.849998474121094,30.56999969482422,33.4900016784668,204306.0,0.0,0.0,0.1311
2026-04-13 00:00:00+05:30,33.0099983215332,34.83000183105469,32.58000183105469,34.040000915527344,69462.0,0.0,0.0,0.302
2026-04-15 00:00:00+05:30,35.04999923706055,35.849998474121094,34.060001373291016,35.040000915527344,65903.0,0.0,0.0,0.1806
2026-04-16 00:00:00+05:30,35.939998626708984,35.939998626708984,34.29999923706055,35.060001373291016,35054.0,0.0,0.0,0.138
2026-04-17 00:00:00+05:30,34.400001525878906,36.45000076293945,34.400001525878906,36.04999923706055,82085.0,0.0,0.0,0.694
2026-04-20 00:00:00+05:30,34.400001525878906,35.9900016784668,33.20000076293945,33.38999938964844,65288.0,0.0,0.0,0.2934
2026-04-21 00:00:00+05:30,33.0,34.18000030517578,33.0,33.0099983215332,16328.0,0.0,0.0,0.5859
2026-04-22 00:00:00+05:30,33.0099983215332,34.4900016784668,33.0,33.470001220703125,38074.0,0.0,0.0,0.2528
2026-04-23 00:00:00+05:30,33.68000030517578,33.779998779296875,32.599998474121094,32.790000915527344,27930.0,0.0,0.0,0.5089
2026-04-24 00:00:00+05:30,32.11000061035156,33.540000915527344,32.11000061035156,32.599998474121094,11285.0,0.0,0.0,0.5561
2026-04-27 00:00:00+05:30,32.599998474121094,32.959999084472656,31.200000762939453,31.889999389648438,30552.0,0.0,0.0,0.4574
2026-04-28 00:00:00+05:30,32.09000015258789,32.150001525878906,31.5,31.530000686645508,14862.0,0.0,0.0,0.3829
2026-04-29 00:00:00+05:30,31.520000457763672,33.70000076293945,31.520000457763672,32.119998931884766,25471.0,0.0,0.0,0.3471
2026-04-30 00:00:00+05:30,31.309999465942383,32.939998626708984,31.309999465942383,32.31999969482422,21140.0,0.0,0.0,0.3093
2026-05-04 00:00:00+05:30,32.34000015258789,33.16999816894531,31.56999969482422,32.04999923706055,19490.0,0.0,0.0,0.6577
2026-05-05 00:00:00+05:30,32.06999969482422,34.400001525878906,31.899999618530273,32.400001525878906,100401.0,0.0,0.0,0.5984
2026-05-06 00:00:00+05:30,32.400001525878906,32.959999084472656,31.899999618530273,32.11000061035156,23224.0,0.0,0.0,0.679
2026-05-07 00:00:00+05:30,32.0,32.68000030517578,31.899999618530273,32.22999954223633,17411.0,0.0,0.0,0.1746
2026-05-08 00:00:00+05:30,32.0,32.400001525878906,31.350000381469727,32.099998474121094,63901.0,0.0,0.0,0.5385
2026-05-11 00:00:00+05:30,31.510000228881836,32.5,31.510000228881836,31.979999542236328,9654.0,0.0,0.0,0.663
2026-05-12 00:00:00+05:30,31.989999771118164,33.0,30.010000228881836,30.6299991607666,38235.0,0.0,0.0,0.2087
2026-05-13 00:00:00+05:30,30.31999969482422,31.200000762939453,30.200000762939453,30.420000076293945,31845.0,0.0,0.0,0.1399
2026-05-14 00:00:00+05:30,30.079999923706055,31.469999313354492,30.079999923706055,30.920000076293945,13865.0,0.0,0.0,0.5447
2026-05-15 00:00:00+05:30,30.770000457763672,31.25,28.100000381469727,29.1200008392334,102209.0,0.0,0.0,0.4447
2026-05-18 00:00:00+05:30,29.899999618530273,31.200000762939453,28.299999237060547,30.280000686645508,60596.0,0.0,0.0,0.6051
2026-05-19 00:00:00+05:30,30.25,31.290000915527344,29.6200008392334,29.799999237060547,19237.0,0.0,0.0,0.1839
2026-05-20 00:00:00+05:30,30.0,30.200000762939453,29.600000381469727,29.709999084472656,11382.0,0.0,0.0,0.5772
2026-05-21 00:00:00+05:30,30.0,30.399999618530273,28.989999771118164,29.3700008392334,28687.0,0.0,0.0,0.221
2026-05-22 00:00:00+05:30,29.0,29.729999542236328,28.5,28.979999542236328,27838.0,0.0,0.0,0.1982
2026-05-25 00:00:00+05:30,29.290000915527344,29.989999771118164,28.100000381469727,28.809999465942383,25382.0,0.0,0.0,0.1986
2026-05-26 00:00:00+05:30,28.809999465942383,29.350000381469727,28.389999389648438,28.989999771118164,14224.0,0.0,0.0,0.5887
2026-05-27 00:00:00+05:30,28.989999771118164,31.34000015258789,28.989999771118164,29.690000534057617,47255.0,0.0,0.0,0.4991
2026-05-28 00:00:00+05:30,29.690000534057617,29.690000534057617,29.690000534057617,29.690000534057617,0.0,0.0,0.0,0.4138
2026-05-29 00:00:00+05:30,29.829999923706055,30.520000457763672,29.030000686645508,29.68000030517578,23793.0,0.0,0.0,0.3153
2026-06-01 00:00:00+05:30,29.68000030517578,30.389999389648438,29.200000762939453,29.209999084472656,10996.0,0.0,0.0,0.6263
2026-06-02 00:00:00+05:30,29.75,29.979999542236328,29.399999618530273,29.489999771118164,16875.0,0.0,0.0,0.3355
2026-06-03 00:00:00+05:30,29.549999237060547,29.799999237060547,28.969999313354492,29.049999237060547,28810.0,0.0,0.0,0.59
2026-06-04 00:00:00+05:30,29.0,29.940000534057617,28.799999237060547,29.31999969482422,15772.0,0.0,0.0,0.3635
