Date,Close,Log_Return,Vol_Shock_Ratio,Norm_Spread,Amihud_Ratio,Delivery_Divergence,Volatility_Squeeze,Positive_Streak,Return_Skewness,Gap_Up_Momentum,Volume_Gini_20D,OBV_Acceleration,Max_Drawdown_20D
2023-10-15,15.4000,-0.0097,1.5905,0.0552,0.0000,0.5263,1.2309,0.0000,2.1450,0.0161,0.4851,-0.1005,-0.1234
2023-10-16,15.3500,-0.0033,0.7993,0.0293,0.0000,0.2002,1.2416,0.0000,2.6056,0.0032,0.4594,-0.4905,-0.1205
2023-10-17,15.1000,-0.0164,0.9235,0.0364,0.0000,0.2466,1.2632,0.0000,2.6923,0.0000,0.4591,-0.9559,-0.1060
2023-10-18,14.9500,-0.0100,0.7239,0.0268,0.0000,0.3399,1.2535,0.0000,2.9560,0.0000,0.4603,-1.2502,-0.0970
2023-10-19,15.0000,0.0033,0.3718,0.0400,0.0000,0.1884,1.2276,1.0000,2.9309,0.0067,0.4698,-0.9406,-0.1000
2023-10-22,13.8000,-0.0834,0.8355,0.1196,0.0000,0.3667,1.4403,0.0000,1.1269,0.0133,0.4605,-1.2762,-0.0217
2023-10-24,14.0500,0.0180,3.1651,0.0534,0.0000,2.8882,1.4642,1.0000,1.1578,0.0181,0.4949,0.7442,-0.0391
2023-10-25,13.5000,-0.0399,1.0634,0.0630,0.0000,0.7141,0.8874,0.0000,1.1158,-0.0142,0.4952,0.0698,0.0148
2023-10-26,13.7000,0.0147,2.2253,0.0438,0.0000,1.9754,0.9478,1.0000,0.9939,0.0000,0.4973,1.4639,0.0036
2023-10-29,13.7500,0.0036,1.4845,0.0327,0.0000,1.2949,0.9631,2.0000,0.9137,0.0000,0.4941,2.0650,0.0036
2023-10-30,13.8000,0.0036,0.2713,0.0254,0.0000,0.1839,0.9779,3.0000,0.8608,0.0000,0.4911,1.8936,0.0000
2023-10-31,13.8000,0.0000,1.6596,0.0290,0.0000,1.4014,0.9814,0.0000,0.9176,0.0145,0.4734,1.6479,0.0072
2023-11-01,13.9000,0.0072,2.6407,0.0288,0.0000,2.4345,0.9953,1.0000,0.9147,0.0000,0.4730,2.5368,0.0108
2023-11-02,14.0500,0.0107,1.2717,0.0285,0.0000,1.0924,1.0137,2.0000,0.7870,0.0144,0.4453,2.4921,0.0285
2023-11-05,14.5000,0.0315,3.4119,0.0483,0.0000,3.0973,1.0775,3.0000,0.7543,-0.0036,0.4625,2.9547,-0.0034
2023-11-06,14.4500,-0.0035,0.6414,0.0208,0.0000,0.4863,0.5974,0.0000,0.6962,0.0138,0.4411,2.1958,0.0000
2023-11-07,14.8000,0.0239,1.6406,0.0304,0.0000,1.4739,0.6139,1.0000,0.5441,0.0208,0.4226,2.2641,-0.0236
2023-11-08,14.4500,-0.0239,2.4587,0.0484,0.0000,2.2484,0.4872,0.0000,-1.5343,-0.0034,0.4155,1.3420,0.0519
2023-11-09,15.6500,0.0798,4.2603,0.1118,0.0000,3.3721,0.8571,1.0000,-0.1252,0.0138,0.4791,2.3051,-0.0288
2023-11-12,15.4500,-0.0129,1.0025,0.0324,0.0000,0.8841,0.8916,0.0000,-0.1630,0.0032,0.4616,1.7152,-0.0162
2023-11-14,15.3500,-0.0065,1.3921,0.0326,0.0000,1.2050,0.9063,0.0000,-0.1797,0.0032,0.4528,1.1610,-0.0098
2023-11-15,15.2000,-0.0098,2.2993,0.0263,0.0000,2.1669,0.9228,0.0000,-0.1451,0.0000,0.4435,0.3364,0.0197
2023-11-16,15.5000,0.0195,2.2659,0.0516,0.0000,2.0921,0.9296,1.0000,-0.3130,-0.0066,0.4327,1.0803,0.0290
2023-11-19,16.9500,0.0894,3.8972,0.1445,0.0000,2.5047,1.1603,2.0000,0.1606,-0.0097,0.4633,2.3521,-0.0590
2023-11-20,17.9500,0.0573,2.8459,0.0501,0.0000,1.0769,1.1954,3.0000,0.0424,0.0472,0.4543,2.7574,-0.1114
2023-11-21,16.7000,-0.0722,1.0378,0.1048,0.0000,0.4952,1.4322,0.0000,0.2861,0.0111,0.4258,2.0041,-0.0449
2023-11-22,16.7000,0.0000,0.4403,0.0389,0.0000,0.2238,1.4341,0.0000,0.3649,0.0000,0.4335,1.7467,-0.0449
2023-11-23,17.0500,0.0207,0.7789,0.0293,0.0000,0.5839,1.3868,1.0000,0.2884,0.0120,0.4114,1.7706,-0.0645
2023-11-27,16.7500,-0.0178,1.0700,0.0537,0.0000,0.8345,1.2552,0.0000,0.3928,0.0235,0.4004,1.2646,-0.0478
2023-11-28,16.5500,-0.0120,1.0733,0.0302,0.0000,0.9605,1.2540,0.0000,0.4417,0.0149,0.3802,0.7949,-0.0363
2023-11-29,15.9500,-0.0369,0.7414,0.0596,0.0000,0.5296,1.3026,0.0000,0.4655,0.0030,0.3457,0.4404,0.0063
2023-11-30,16.1500,0.0125,0.6744,0.0372,0.0000,0.5752,1.2971,1.0000,0.4118,0.0157,0.3328,0.6368,-0.0062
2023-12-03,16.1500,0.0000,0.1109,0.0279,0.0000,0.0493,1.2911,0.0000,0.4418,0.0217,0.3638,0.5616,-0.0062
2023-12-04,16.0500,-0.0062,0.3181,0.0374,0.0000,0.1537,0.9745,0.0000,0.5096,0.0093,0.3665,0.3500,0.0093
2023-12-05,17.0000,0.0575,1.3816,0.0735,0.0000,0.7472,0.9631,1.0000,0.4621,0.0218,0.3683,0.8986,-0.0471
2023-12-06,17.1000,0.0059,0.4536,0.0673,0.0000,0.2741,0.7060,2.0000,0.4269,0.0118,0.3551,1.0131,-0.0526
2023-12-07,16.7500,-0.0207,0.2102,0.0418,0.0000,0.0800,0.7337,0.0000,0.5777,0.0146,0.3755,0.8255,-0.0328
2023-12-10,16.5500,-0.0120,0.3242,0.0332,0.0000,0.1311,0.7107,0.0000,0.5652,0.0149,0.3956,0.5993,-0.0211
2023-12-11,16.4500,-0.0061,0.3111,0.0365,0.0000,0.1287,0.6968,0.0000,0.6586,0.0121,0.4058,0.3926,-0.0152
2023-12-12,16.4000,-0.0030,0.2172,0.0335,0.0000,0.0860,0.6899,0.0000,0.6255,0.0091,0.4211,0.2217,-0.0122
2023-12-13,16.3500,-0.0031,0.2624,0.0398,0.0000,0.0848,0.5966,0.0000,0.6121,0.0061,0.4402,-0.0003,-0.0092
2023-12-14,16.2000,-0.0092,0.1475,0.0216,0.0000,0.0427,0.5955,0.0000,0.6102,0.0092,0.4696,-0.2966,0.0278
2023-12-17,18.9000,0.1542,3.9717,0.1667,0.0000,2.3985,1.3553,1.0000,1.5176,0.0031,0.5141,2.7332,-0.1190
2023-12-18,18.9500,0.0026,3.0697,0.0923,0.0000,1.2911,1.3482,2.0000,1.9278,0.0370,0.5116,3.2748,-0.1214
2023-12-19,18.1500,-0.0431,1.9907,0.1047,0.0000,0.9278,1.3604,0.0000,2.1996,-0.0132,0.5014,1.9346,-0.0826
2023-12-20,18.9500,0.0431,1.2421,0.0897,0.0000,0.5909,1.3845,1.0000,2.5311,0.0138,0.5007,2.0944,-0.1214
2023-12-21,18.3500,-0.0322,0.4662,0.0654,0.0000,0.1868,1.3991,0.0000,2.4630,0.0211,0.5002,1.6576,-0.0926
2023-12-25,18.2000,-0.0082,0.4283,0.0604,0.0000,0.2258,1.4102,0.0000,2.5858,0.0136,0.5101,1.3546,-0.0852
2023-12-26,17.5000,-0.0392,0.4981,0.0800,0.0000,0.1693,1.4522,0.0000,2.4762,0.0027,0.5201,1.0734,-0.0486
2023-12-27,16.6500,-0.0498,0.7679,0.0721,0.0000,0.3149,1.5203,0.0000,2.2952,0.0057,0.5234,0.7425,0.0511
2023-12-28,17.5000,0.0498,0.4141,0.0686,0.0000,0.2023,1.5556,1.0000,2.0233,0.0090,0.5319,0.7901,0.0229
2023-12-31,18.3000,0.0447,0.9816,0.0820,0.0000,0.4884,1.5697,2.0000,1.8338,0.0114,0.5316,1.0087,-0.0219
2024-01-01,20.2500,0.1013,4.0397,0.1160,0.0000,2.2517,1.2248,3.0000,1.4287,0.0246,0.5447,2.2095,-0.1160
2024-01-02,19.8500,-0.0200,0.8802,0.0554,0.0000,0.4152,1.2398,0.0000,1.4340,0.0099,0.5336,1.6657,-0.0982
2024-01-03,19.5500,-0.0152,0.5340,0.0384,0.0000,0.1998,1.1863,0.0000,1.7020,0.0025,0.5396,1.3234,-0.0844
2024-01-04,19.2500,-0.0155,0.8375,0.0727,0.0000,0.3262,1.1547,0.0000,1.7421,0.0026,0.5336,0.9329,-0.0701
2024-01-07,19.6500,0.0206,0.7737,0.0585,0.0000,0.3722,1.1241,1.0000,1.6467,0.0000,0.5151,1.0947,-0.0891
2024-01-08,20.3500,0.0350,0.9559,0.0713,0.0000,0.5032,1.1334,2.0000,1.4920,0.0076,0.4998,1.3099,-0.1204
2024-01-09,19.9500,-0.0199,0.4904,0.0326,0.0000,0.1772,1.0852,0.0000,1.4979,-0.0147,0.4894,1.0333,-0.1028
2024-01-10,19.7000,-0.0126,0.2428,0.0381,0.0000,0.0989,0.9779,0.0000,1.5102,0.0000,0.4854,0.8665,-0.0914
2024-01-11,19.3500,-0.0179,0.5287,0.0620,0.0000,0.2277,0.9660,0.0000,1.5246,0.0000,0.4695,0.5760,-0.0749
2024-01-14,19.9500,0.0305,0.7083,0.0627,0.0000,0.3720,0.9372,1.0000,1.3973,0.0052,0.4407,0.9616,-0.1028
2024-01-15,19.5500,-0.0203,0.6575,0.0818,0.0000,0.2291,0.5402,0.0000,0.9492,0.0301,0.4029,0.5156,-0.0844
2024-01-16,19.1500,-0.0207,0.2978,0.0496,0.0000,0.1636,0.6063,0.0000,1.0147,0.0000,0.3831,0.3353,-0.0653
2024-01-17,19.2000,0.0026,0.3777,0.0729,0.0000,0.2093,0.6039,1.0000,1.0199,-0.0052,0.3777,0.4460,-0.0677
2024-01-18,19.7500,0.0282,0.9019,0.0633,0.0000,0.5773,0.6368,2.0000,1.0891,0.0104,0.3714,0.8004,-0.0937
2024-01-22,18.2500,-0.0790,0.5955,0.1014,0.0000,0.2240,0.8984,0.0000,0.5797,-0.0127,0.3697,0.4494,-0.0192
2024-01-23,17.9000,-0.0194,0.9865,0.0503,0.0000,0.4418,0.8084,0.0000,0.6116,0.0027,0.3573,-0.1158,0.0140
2024-01-24,18.5500,0.0357,0.9366,0.0512,0.0000,0.5432,0.9176,1.0000,0.4076,0.0084,0.3461,0.3102,-0.0216
2024-01-28,18.5500,0.0000,0.8735,0.0539,0.0000,0.4171,0.9251,0.0000,0.4072,0.0162,0.3445,0.2103,-0.0216
2024-01-29,19.3000,0.0396,1.5317,0.0933,0.0000,1.0995,0.9886,1.0000,0.4190,0.0135,0.3390,1.4968,-0.0596
2024-01-30,18.9500,-0.0183,0.8067,0.0501,0.0000,0.4172,0.9569,0.0000,0.6468,0.0000,0.3407,0.7380,-0.0422
2024-01-31,18.6500,-0.0160,0.7294,0.0483,0.0000,0.4538,0.9543,0.0000,-0.3776,0.0158,0.2093,0.0619,-0.0268
2024-02-01,18.5000,-0.0081,0.7184,0.0432,0.0000,0.3281,0.9483,0.0000,-0.4461,0.0107,0.2123,-0.7181,-0.0189
2024-02-04,18.1500,-0.0191,0.5926,0.0744,0.0000,0.2272,0.9535,0.0000,-0.4245,0.0108,0.2211,-1.2903,0.0083
2024-02-05,21.7500,0.1809,7.1114,0.1724,0.0000,3.8153,1.6660,1.0000,2.1978,0.0165,0.4434,3.9353,-0.1586
2024-02-06,23.0500,0.0581,6.7389,0.1670,0.0000,4.3668,1.5008,2.0000,1.9778,0.0069,0.5745,3.9010,-0.2061
2024-02-07,23.3500,0.0129,1.5507,0.0642,0.0000,0.7957,1.4636,3.0000,2.0855,0.0282,0.5806,3.0171,-0.2163
2024-02-08,21.9500,-0.0618,1.0545,0.1367,0.0000,0.6163,1.5847,0.0000,1.8711,0.0278,0.5755,2.1988,-0.1708
2024-02-11,19.6500,-0.1107,0.7044,0.1578,0.0000,0.3638,1.7836,0.0000,1.1993,0.0023,0.5577,1.7403,-0.1425
2024-02-12,19.2500,-0.0206,0.4714,0.0753,0.0000,0.2800,1.7678,0.0000,1.2032,-0.0305,0.5545,1.4430,-0.2000
2024-02-13,20.2500,0.0506,0.4128,0.0765,0.0000,0.2366,1.7855,1.0000,1.1322,-0.0208,0.5582,1.3653,-0.2395
2024-02-14,20.7000,0.0220,0.3302,0.0362,0.0000,0.1524,1.7771,2.0000,1.0211,0.0296,0.5632,1.2831,-0.2560
2024-02-15,21.2500,0.0262,0.3752,0.0400,0.0000,0.1657,1.7733,3.0000,0.8995,0.0169,0.5505,1.2210,-0.2753
2024-02-18,20.7000,-0.0262,0.2212,0.0507,0.0000,0.1086,1.7790,0.0000,0.9528,0.0188,0.5489,1.0629,-0.2585
2024-02-19,20.1500,-0.0269,0.2620,0.0571,0.0000,0.1249,1.1840,0.0000,1.0904,0.0000,0.5587,0.9155,-0.2605
2024-02-20,19.7000,-0.0226,0.4281,0.0787,0.0000,0.2687,1.0620,0.0000,1.2423,0.0050,0.5534,0.7491,-0.2437
2024-02-21,20.3500,0.0325,0.4748,0.0811,0.0000,0.3127,1.1291,1.0000,1.0984,0.0102,0.5541,0.7605,-0.2678
2024-02-22,19.9000,-0.0224,0.2102,0.0452,0.0000,0.1033,1.0629,0.0000,1.2574,0.0074,0.5681,0.6410,-0.2513
2024-02-25,19.2000,-0.0358,0.3598,0.0573,0.0000,0.1605,0.7255,0.0000,1.2989,0.0050,0.5721,0.4919,-0.2292
2024-02-26,18.9000,-0.0157,0.3716,0.0741,0.0000,0.1689,0.7188,0.0000,1.4817,0.0078,0.5773,0.3393,-0.2249
2024-02-27,18.3000,-0.0323,0.3760,0.0765,0.0000,0.1673,0.6040,0.0000,1.4910,0.0053,0.5800,0.1705,-0.1995
2024-02-28,18.3500,0.0027,0.1129,0.0300,0.0000,0.0482,0.5589,1.0000,1.4449,0.0000,0.5963,0.0965,-0.2016
2024-02-29,19.1500,0.0427,0.4029,0.0548,0.0000,0.1861,0.6305,2.0000,1.2672,0.0109,0.5934,0.0864,-0.2350
2024-03-03,19.6000,0.0232,1.0637,0.0969,0.0000,0.5960,0.6586,3.0000,1.1536,0.0078,0.5824,0.5019,-0.2526
2024-03-04,19.4000,-0.0103,0.5589,0.0799,0.0000,0.2951,0.6519,0.0000,-0.6187,0.0000,0.5296,0.0080,-0.2448
2024-03-05,18.8500,-0.0288,0.5408,0.0663,0.0000,0.1835,0.6626,0.0000,-0.6585,0.0052,0.3241,-0.3598,-0.2228
2024-03-06,18.7500,-0.0053,0.2270,0.0320,0.0000,0.0805,0.5931,0.0000,-0.6102,-0.0133,0.2981,-0.4467,-0.2187
2024-03-10,18.2000,-0.0298,0.4517,0.0577,0.0000,0.1683,0.6045,0.0000,-0.6898,0.0107,0.2790,-0.7095,-0.1951
2024-03-11,16.8500,-0.0771,0.8002,0.0979,0.0000,0.2785,0.7562,0.0000,0.1327,-0.0027,0.2625,-1.1850,-0.1306
2024-03-12,15.4000,-0.0900,0.9580,0.1201,0.0000,0.3704,0.9189,0.0000,-0.2558,-0.0148,0.2589,-1.6710,-0.0487
2024-03-13,15.7500,0.0225,0.9610,0.0857,0.0000,0.4527,0.9595,1.0000,-0.4457,-0.0065,0.2580,-0.9536,-0.0698
2024-03-14,15.9000,0.0095,0.4258,0.0472,0.0000,0.2291,0.9676,2.0000,-0.4513,0.0095,0.2781,-0.6160,-0.0786
2024-03-17,15.9500,0.0031,0.3225,0.0439,0.0000,0.1482,0.8739,3.0000,-0.4703,-0.0157,0.3029,-0.3404,-0.0815
2024-03-18,15.3500,-0.0383,0.5051,0.0619,0.0000,0.1407,0.8164,0.0000,-0.4148,-0.0188,0.3106,-0.6007,-0.0456
2024-03-19,14.9000,-0.0298,0.5746,0.0738,0.0000,0.2333,0.8071,0.0000,-0.4009,-0.0065,0.3187,-0.9151,-0.0168
2024-03-20,16.0500,0.0743,1.9606,0.0966,0.0000,1.4056,1.0597,1.0000,0.0379,0.0067,0.3342,0.5525,-0.0872
2024-03-21,15.7500,-0.0189,0.5192,0.0349,0.0000,0.1965,1.0572,0.0000,0.1835,0.0000,0.3411,0.2756,-0.0698
2024-03-25,15.5000,-0.0160,0.4164,0.0484,0.0000,0.1237,1.0706,0.0000,0.1571,0.0159,0.3510,0.0287,-0.0548
2024-03-26,14.8000,-0.0462,1.0466,0.0845,0.0000,0.2137,0.9866,0.0000,0.1703,-0.0065,0.3516,-0.7284,-0.0101
2024-03-27,14.6500,-0.0102,0.5799,0.0614,0.0000,0.2262,0.7819,0.0000,0.1459,0.0135,0.3604,-1.0955,0.0990
2024-03-31,16.1000,0.0944,0.7939,0.1118,0.0000,0.3999,1.0173,1.0000,0.4319,-0.0102,0.3629,-0.5797,0.0311
2024-04-01,16.6000,0.0306,0.5497,0.0572,0.0000,0.2561,1.0339,2.0000,0.3401,-0.0031,0.3539,-0.2162,0.0422
2024-04-02,17.3000,0.0413,1.0902,0.0607,0.0000,0.5471,1.0825,3.0000,0.3411,0.0211,0.3509,0.5775,0.0925
2024-04-03,19.5500,0.1223,4.8431,0.1586,0.0000,3.0885,1.2346,4.0000,0.6925,0.0376,0.3918,3.4186,-0.0332
2024-04-04,20.8500,0.0644,4.5582,0.1175,0.0000,2.4933,1.1935,5.0000,0.4935,0.0000,0.4686,3.6047,-0.0935
2024-04-07,19.7500,-0.0542,1.0165,0.0987,0.0000,0.4127,1.2742,0.0000,0.4886,0.0336,0.4680,2.4660,-0.0430
2024-04-08,19.5000,-0.0127,0.6730,0.0769,0.0000,0.3054,1.2657,0.0000,0.5076,0.0101,0.4508,1.8935,-0.0308
2024-04-09,19.3500,-0.0077,0.4569,0.0517,0.0000,0.1868,1.2554,0.0000,0.4643,0.0026,0.4506,1.5393,-0.0233
2024-04-11,18.9000,-0.0235,0.6494,0.0847,0.0000,0.2268,1.1996,0.0000,0.5703,-0.0155,0.4523,1.2126,0.0106
2024-04-14,19.1000,0.0105,0.9950,0.1047,0.0000,0.3846,1.1816,1.0000,0.8872,-0.0582,0.4529,1.3367,0.0576
2024-04-15,21.0000,0.0948,3.1138,0.1190,0.0000,0.6645,1.1581,2.0000,0.7366,0.0000,0.4831,1.9497,-0.0381
2024-04-17,22.1500,0.0533,3.8855,0.0880,0.0000,1.3533,1.1645,3.0000,0.5910,0.0190,0.5122,2.5254,-0.0880
2024-04-18,22.1000,-0.0023,0.6620,0.0611,0.0000,0.2304,1.1775,0.0000,0.6035,-0.0068,0.4946,1.9634,-0.0860
2024-04-21,22.4500,0.0157,0.6949,0.0713,0.0000,0.1418,0.9416,1.0000,0.5583,0.0430,0.4826,1.8397,-0.1002
2024-04-22,22.0500,-0.0180,0.4572,0.0499,0.0000,0.0783,0.8811,0.0000,0.5676,-0.0178,0.4768,1.5284,-0.0839
2024-04-23,22.0000,-0.0023,0.5508,0.0273,0.0000,0.0330,0.7704,0.0000,0.7963,-0.0023,0.4777,1.2570,-0.0818
2024-04-24,21.3500,-0.0300,0.3317,0.0585,0.0000,0.0683,0.8022,0.0000,0.7840,0.0114,0.4758,1.0691,-0.0539
2024-04-25,21.6000,0.0116,0.2036,0.0208,0.0000,0.0275,0.7926,1.0000,0.7310,0.0000,0.4781,1.0106,-0.0787
2024-04-28,21.7000,0.0046,0.2302,0.0207,0.0000,0.0325,0.7540,2.0000,0.8012,0.0162,0.4943,0.9686,-0.0829
2024-04-29,22.0500,0.0160,0.4969,0.0476,0.0000,0.1721,0.7534,3.0000,0.7480,0.0138,0.4865,0.9998,-0.0975
2024-05-01,22.9000,0.0378,1.4688,0.0917,0.0000,0.6999,0.5121,4.0000,0.8478,0.0136,0.4823,1.2847,-0.1397
2024-05-02,22.6000,-0.0132,0.3258,0.0265,0.0000,0.0573,0.4338,0.0000,0.9698,0.0022,0.4797,1.1323,-0.1283
2024-05-05,22.4500,-0.0067,0.3571,0.0312,0.0000,0.1006,0.4372,0.0000,1.1480,0.0066,0.4868,0.9844,-0.1826
2024-05-06,22.1000,-0.0157,0.3084,0.0543,0.0000,0.0633,0.4393,0.0000,0.9785,0.0245,0.4863,0.8216,-0.1719
2024-05-07,22.0500,-0.0023,0.2153,0.0340,0.0000,0.1211,0.4225,0.0000,1.2519,0.0181,0.4710,0.6861,-0.1701
2024-05-08,20.8000,-0.0584,0.2908,0.1010,0.0000,0.0724,0.5873,0.0000,1.1513,0.0068,0.4878,0.5352,-0.1202
2024-05-09,20.6000,-0.0097,0.1131,0.0340,0.0000,0.0352,0.5577,0.0000,1.1459,-0.0192,0.5143,0.4284,-0.1117
2024-05-12,20.2000,-0.0196,0.1425,0.0619,0.0000,0.0552,0.5560,0.0000,1.1572,0.0000,0.5320,0.3021,-0.0941
2024-05-13,21.5500,0.0647,0.4710,0.1090,0.0000,0.2359,0.7478,1.0000,0.8865,-0.0198,0.5367,0.3857,-0.1508
2024-05-14,21.5000,-0.0023,0.2080,0.0581,0.0000,0.0833,0.7409,0.0000,0.9438,0.0093,0.5569,0.1925,-0.1488
2024-05-15,21.0500,-0.0212,0.1913,0.0428,0.0000,0.0535,0.6798,0.0000,0.5831,0.0186,0.5418,-0.1447,-0.1306
2024-05-16,21.4500,0.0188,0.8042,0.0746,0.0000,0.4582,0.7248,1.0000,0.4992,-0.0214,0.3902,0.3631,-0.1469
2024-05-20,21.2500,-0.0094,0.8825,0.0706,0.0000,0.3592,0.7261,0.0000,0.5401,-0.0210,0.3820,-0.1974,-0.1388
2024-05-21,21.0000,-0.0118,0.3721,0.0357,0.0000,0.1227,0.7236,0.0000,0.7137,0.0071,0.3840,-0.3641,-0.1286
2024-05-22,20.7000,-0.0144,0.2727,0.0362,0.0000,0.0541,0.7263,0.0000,0.7046,0.0024,0.4039,-0.4958,-0.1159
2024-05-23,20.5500,-0.0073,0.2956,0.0365,0.0000,0.0809,0.5937,0.0000,0.7358,0.0121,0.4143,-0.6881,-0.1095
2024-05-26,20.2500,-0.0147,0.4001,0.0395,0.0000,0.0769,0.6009,0.0000,0.7554,0.0024,0.4301,-1.0027,-0.0963
2024-05-27,19.9000,-0.0174,0.3202,0.0302,0.0000,0.0572,0.5974,0.0000,0.9299,-0.0123,0.4441,-1.2381,-0.0804
2024-05-28,20.7000,0.0394,0.7615,0.0676,0.0000,0.2674,0.4357,1.0000,0.7890,-0.0101,0.4451,-0.8840,-0.1159
2024-05-29,20.1000,-0.0294,0.5111,0.0721,0.0000,0.1564,0.4720,0.0000,0.9680,0.0121,0.4434,-1.0762,-0.0896
2024-05-30,19.7000,-0.0201,0.6595,0.0381,0.0000,0.1667,0.4709,0.0000,1.2753,-0.0050,0.2907,-1.3399,-0.0711
2024-06-02,19.8000,0.0051,0.5090,0.0404,0.0000,0.1235,0.4368,1.0000,1.1456,0.0025,0.2912,-1.1473,-0.0758
2024-06-03,18.3500,-0.0761,2.3954,0.1253,0.0000,0.3136,0.6522,0.0000,0.3516,0.0177,0.3009,-2.1424,-0.0027
2024-06-04,18.3000,-0.0027,1.0762,0.0765,0.0000,0.4442,0.6578,0.0000,0.2795,0.0000,0.2955,-2.2726,0.0432
2024-06-05,19.5500,0.0661,0.9320,0.0767,0.0000,0.2873,0.8638,1.0000,0.4802,0.0082,0.2955,-1.6483,-0.0235
2024-06-06,20.0000,0.0228,2.0094,0.1050,0.0000,0.7573,0.9020,2.0000,0.4317,0.0179,0.3089,-0.6467,-0.0455
2024-06-09,20.2100,0.0104,0.5699,0.0440,0.0000,0.1445,0.9018,3.0000,0.3300,0.0450,0.3034,-0.3220,-0.0554
2024-06-10,20.2100,0.0000,0.7056,0.0460,0.0000,0.2905,0.8943,0.0000,0.2490,0.0084,0.2991,-0.2752,-0.0554
2024-06-11,19.9700,-0.0119,0.9215,0.0471,0.0000,0.3051,0.8426,0.0000,0.1185,0.0020,0.2877,-0.6285,-0.0441
2024-06-12,19.9100,-0.0030,0.4684,0.0216,0.0000,0.1625,0.8202,0.0000,0.1225,0.0155,0.2993,-0.7763,-0.0412
2024-06-13,20.0200,0.0055,1.9683,0.0509,0.0000,0.8397,0.8068,1.0000,-0.0167,0.0020,0.3087,0.3738,-0.0465
2024-06-17,19.6300,-0.0197,1.3422,0.0504,0.0000,0.4998,0.8203,0.0000,0.1734,0.0015,0.3041,-0.2973,-0.0275
2024-06-18,19.1800,-0.0232,0.8690,0.0438,0.0000,0.2597,0.5913,0.0000,0.2328,0.0112,0.2926,-0.7957,-0.0047
2024-06-19,19.0900,-0.0047,1.3266,0.0304,0.0000,0.6069,0.5935,0.0000,0.1925,0.0104,0.2935,-1.6093,0.0120
2024-06-20,19.4600,0.0192,0.8347,0.0247,0.0000,0.2148,0.3952,1.0000,0.0252,0.0110,0.2827,-0.8943,-0.0072
2024-06-23,19.4600,0.0000,1.3193,0.0380,0.0000,0.6414,0.3403,0.0000,-0.0169,0.0098,0.2727,-0.8089,-0.0072
2024-06-24,19.3200,-0.0072,0.9126,0.0331,0.0000,0.3040,0.3193,0.0000,-0.0569,0.0015,0.2653,-1.4171,0.0109
2024-06-25,19.5300,0.0108,1.3357,0.0445,0.0000,0.6608,0.3471,1.0000,-0.2089,-0.0010,0.2534,-0.2147,0.0020
2024-06-26,19.5700,0.0020,0.8718,0.0143,0.0000,0.2034,0.3575,2.0000,-0.2165,0.0000,0.2539,0.6367,0.0020
2024-06-27,19.6100,0.0020,1.2893,0.0316,0.0000,0.2753,0.3597,3.0000,-0.3742,0.0112,0.2499,1.7411,0.0071
2024-06-30,20.5000,0.0444,1.8215,0.0551,0.0000,0.4945,0.5435,4.0000,-0.4235,0.0066,0.2554,2.6455,-0.0366
2024-07-01,21.1600,0.0317,4.6526,0.0841,0.0000,2.4803,0.5509,5.0000,-0.4784,0.0005,0.3595,3.6208,-0.0666
2024-07-02,20.9300,-0.0109,1.0534,0.0425,0.0000,0.3221,0.5014,0.0000,1.2923,0.0151,0.3515,2.4173,-0.0564
2024-07-03,20.2800,-0.0315,0.3468,0.0508,0.0000,0.1290,0.6077,0.0000,1.0010,-0.0062,0.3673,1.9333,-0.0261
2024-07-04,21.0200,0.0358,1.1881,0.0809,0.0000,0.3712,0.6532,1.0000,0.3808,0.0207,0.3619,2.0062,-0.0604
2024-07-07,21.0200,0.0000,1.9728,0.0676,0.0000,0.5216,0.6547,0.0000,0.5514,0.0200,0.3784,1.7300,-0.0771
2024-07-08,20.9700,-0.0024,1.0539,0.0496,0.0000,0.4184,0.6494,0.0000,0.6635,0.0105,0.3600,1.2308,-0.0749
2024-07-09,20.6200,-0.0168,0.5007,0.0451,0.0000,0.2367,0.6856,0.0000,0.7116,0.0124,0.3564,0.9688,-0.0592
2024-07-10,20.3400,-0.0137,0.4061,0.0320,0.0000,0.1672,0.7098,0.0000,0.7118,0.0160,0.3635,0.7596,-0.0462
2024-07-11,21.1000,0.0367,0.9518,0.0545,0.0000,0.4140,0.7634,1.0000,0.5369,-0.0044,0.3383,0.9731,-0.0806
2024-07-14,20.7300,-0.0177,0.4122,0.0429,0.0000,0.0845,0.6978,0.0000,0.6304,0.0175,0.3524,0.7666,-0.0642
2024-07-15,20.2700,-0.0224,0.5600,0.0419,0.0000,0.2520,0.6523,0.0000,0.6142,0.0116,0.3597,0.5267,-0.0429
2024-07-17,20.4700,0.0098,1.2889,0.0703,0.0000,0.7074,0.6647,1.0000,0.5179,0.0025,0.3529,0.8584,-0.0523
2024-07-18,20.0700,-0.0197,0.5438,0.0443,0.0000,0.1613,0.6259,0.0000,0.5276,0.0098,0.3596,0.6039,-0.0334
2024-07-21,19.8400,-0.0115,0.2449,0.0136,0.0000,0.0828,0.5102,0.0000,0.7342,-0.0060,0.3751,0.4448,-0.0222
2024-07-22,19.7500,-0.0045,1.2267,0.0628,0.0000,0.6817,0.5092,0.0000,0.7648,0.0005,0.3743,-0.1097,-0.0177
2024-07-23,21.6000,0.0895,3.3562,0.1019,0.0000,1.0350,0.9689,1.0000,1.4002,-0.0116,0.4176,1.4482,-0.1019
2024-07-24,21.7400,0.0065,3.7302,0.1021,0.0000,1.2298,0.9539,2.0000,1.4283,-0.0046,0.4666,2.9630,-0.1076
2024-07-25,21.2500,-0.0228,0.5296,0.0504,0.0000,0.2036,0.9968,0.0000,1.4239,0.0000,0.4626,2.3192,-0.0871
2024-07-28,20.9600,-0.0137,0.4815,0.0406,0.0000,0.2240,0.9906,0.0000,1.4618,-0.0089,0.4677,1.8647,-0.0744
2024-07-29,21.1300,0.0081,0.3521,0.0535,0.0000,0.1388,0.9785,1.0000,1.7520,-0.0210,0.4816,1.7969,-0.0819
2024-07-30,20.8300,-0.0143,0.5171,0.0350,0.0000,0.1540,0.9606,0.0000,2.0816,-0.0062,0.4557,1.4196,-0.0687
2024-07-31,20.4600,-0.0179,0.5024,0.0557,0.0000,0.1262,0.9734,0.0000,2.0732,0.0269,0.4623,1.1142,-0.0518
2024-08-01,20.7700,0.0150,0.5732,0.0530,0.0000,0.2063,0.9669,1.0000,2.0534,0.0020,0.4478,1.1908,-0.0660
2024-08-04,19.8500,-0.0453,1.0590,0.0569,0.0000,0.2715,1.0577,0.0000,2.0275,-0.0120,0.4478,0.7436,-0.0227
2024-08-05,19.4000,-0.0229,0.4038,0.0660,0.0000,0.1381,1.1033,0.0000,2.0683,0.0202,0.4504,0.5559,0.0278
2024-08-06,20.3000,0.0453,1.7953,0.1197,0.0000,1.0689,0.7587,1.0000,1.6594,0.0139,0.4607,1.0624,-0.0177
2024-08-07,20.1200,-0.0089,0.2157,0.0427,0.0000,0.0974,0.7479,0.0000,1.6485,-0.0123,0.4745,0.8955,-0.0089
2024-08-08,21.8300,0.0816,4.3071,0.1182,0.0000,2.3728,1.0851,1.0000,1.3484,0.0204,0.5177,2.2449,-0.0866
2024-08-11,21.3800,-0.0208,1.1961,0.0547,0.0000,0.3951,1.0951,0.0000,1.6140,0.0073,0.5157,1.5715,-0.0674
2024-08-12,20.3100,-0.0513,0.4338,0.0778,0.0000,0.1328,1.2288,0.0000,1.3876,0.0187,0.5080,1.2731,-0.0182
2024-08-13,19.9400,-0.0184,0.1909,0.0391,0.0000,0.0517,1.2352,0.0000,1.3878,0.0030,0.5192,1.1017,0.0085
2024-08-15,20.1100,0.0085,0.2023,0.0244,0.0000,0.1033,1.2412,1.0000,1.3957,0.0005,0.5387,1.0710,0.0308
2024-08-18,22.3900,0.1074,2.3922,0.1322,0.0000,0.6488,1.6551,2.0000,1.2517,0.0114,0.5350,1.8408,-0.0741
2024-08-19,23.5300,0.0497,8.5297,0.1534,0.0000,6.0373,1.6067,3.0000,1.0080,0.1166,0.6614,3.7712,-0.1190
2024-08-20,23.0400,-0.0210,2.0209,0.0885,0.0000,0.7231,1.6249,0.0000,1.0266,-0.0013,0.6505,2.4037,-0.1003
2024-08-21,22.6100,-0.0188,0.3825,0.0615,0.0000,0.1619,1.6262,0.0000,1.3179,0.0143,0.6639,1.9329,-0.0920
2024-08-22,22.2500,-0.0161,0.9171,0.0715,0.0000,0.5247,1.6353,0.0000,1.3864,-0.0004,0.6671,1.4795,-0.0773
2024-08-25,22.6400,0.0174,0.2465,0.0596,0.0000,0.1235,1.4416,1.0000,1.2628,0.0202,0.6683,1.3740,-0.0932
2024-08-26,21.5300,-0.0503,0.5463,0.0864,0.0000,0.1546,1.5028,0.0000,1.1524,0.0106,0.6603,1.1129,-0.0464
2024-08-27,20.9800,-0.0259,0.4916,0.0558,0.0000,0.1870,1.4948,0.0000,1.2381,0.0070,0.6484,0.8949,-0.0458
2024-08-28,20.7300,-0.0120,0.3373,0.0555,0.0000,0.0979,1.5103,0.0000,1.2331,0.0100,0.6434,0.7298,-0.0342
2024-08-29,20.9800,0.0120,1.1962,0.0658,0.0000,0.6052,1.5106,1.0000,1.1321,0.0096,0.6251,0.9521,-0.0458
2024-09-01,22.1400,0.0538,1.3777,0.0854,0.0000,0.8350,1.0983,2.0000,0.9693,0.0153,0.6057,1.2147,-0.0958
2024-09-02,22.5800,0.0197,0.6029,0.0359,0.0000,0.2183,0.9700,3.0000,0.9037,0.0181,0.5997,1.2574,-0.1134
2024-09-03,22.0100,-0.0256,0.1959,0.0391,0.0000,0.0857,0.9766,0.0000,0.9019,-0.0425,0.5964,1.0990,-0.0904
2024-09-04,21.9800,-0.0014,0.4006,0.0405,0.0000,0.1937,0.9683,0.0000,1.1067,-0.0005,0.6036,0.8946,-0.1078
2024-09-05,21.9700,-0.0005,0.5683,0.0428,0.0000,0.1032,0.9571,0.0000,1.0820,0.0086,0.5804,0.6421,-0.1457
2024-09-08,21.7900,-0.0082,0.2802,0.0321,0.0000,0.1053,0.9339,0.0000,1.3666,-0.0005,0.5916,0.4836,-0.1386
2024-09-09,21.9500,0.0073,0.1523,0.0255,0.0000,0.0433,0.7699,1.0000,1.2832,-0.0028,0.6106,0.4558,-0.1449
2024-09-10,22.0300,0.0036,0.2645,0.0236,0.0000,0.0842,0.7066,2.0000,1.4740,0.0000,0.6086,0.4699,-0.1480
2024-09-11,21.5600,-0.0216,0.2011,0.0394,0.0000,0.0810,0.7393,0.0000,1.4670,0.0018,0.6013,0.3075,-0.1294
2024-09-12,21.9600,0.0184,0.9006,0.0410,0.0000,0.3869,0.7492,1.0000,1.4067,0.0148,0.5749,0.7335,-0.1453
2024-09-15,21.8300,-0.0059,0.2023,0.0270,0.0000,0.0730,0.4905,0.0000,0.5478,0.0191,0.5942,0.6509,-0.1402
2024-09-16,21.7800,-0.0023,0.2352,0.0230,0.0000,0.0987,0.4257,0.0000,0.4957,-0.0151,0.4274,0.6989,-0.1382
2024-09-17,21.1500,-0.0294,0.8393,0.0548,0.0000,0.2790,0.4575,0.0000,0.4730,0.0083,0.3744,0.2538,-0.1125
2024-09-18,20.5300,-0.0298,0.6492,0.0482,0.0000,0.2443,0.5275,0.0000,0.4590,0.0132,0.3767,-0.0911,-0.0857
2024-09-19,21.0900,0.0269,0.6119,0.0341,0.0000,0.2745,0.6345,1.0000,0.2522,0.0224,0.3759,0.1647,-0.1124
2024-09-22,20.9100,-0.0086,0.2534,0.0120,0.0000,0.0689,0.6516,0.0000,0.4131,0.0005,0.3893,-0.0055,-0.1368
2024-09-23,20.8700,-0.0019,0.4248,0.0383,0.0000,0.1808,0.6382,0.0000,0.8323,0.0024,0.4020,-0.2942,-0.1605
2024-09-24,20.0200,-0.0416,1.3725,0.0509,0.0000,0.2477,0.7313,0.0000,0.5554,0.0053,0.4028,-1.2035,-0.1249
2024-09-25,20.1900,0.0085,0.5768,0.0248,0.0000,0.3763,0.7405,1.0000,0.4132,0.0130,0.4059,-1.2265,-0.1382
2024-09-26,20.1600,-0.0015,0.3790,0.0308,0.0000,0.1604,0.6839,0.0000,0.5150,0.0223,0.3923,-1.5157,-0.1453
2024-09-29,20.1500,-0.0005,1.0857,0.0298,0.0000,0.6887,0.6896,0.0000,-0.3339,0.0000,0.3229,-1.8391,-0.1519
2024-09-30,20.7100,0.0274,1.4076,0.0459,0.0000,0.6880,0.7849,1.0000,-0.1929,0.0065,0.3126,-1.0360,-0.1748
2024-10-02,20.1900,-0.0254,0.6001,0.0431,0.0000,0.2495,0.7676,0.0000,-0.1927,0.0130,0.3139,-1.2898,-0.1535
2024-10-03,19.6100,-0.0291,0.9930,0.0530,0.0000,0.4126,0.7621,0.0000,-0.0553,0.0000,0.3122,-1.6694,-0.1285
2024-10-06,18.7700,-0.0438,0.8123,0.0671,0.0000,0.2588,0.7581,0.0000,-0.0522,0.0133,0.2974,-1.8052,-0.0895
2024-10-07,19.2800,0.0268,0.5331,0.0513,0.0000,0.2688,0.8646,1.0000,-0.0843,0.0123,0.3076,-1.3876,-0.1136
2024-10-08,20.2800,0.0506,1.2488,0.0666,0.0000,0.5849,1.0541,2.0000,0.2957,0.0197,0.2975,-0.7280,-0.1573
2024-10-09,20.3100,0.0015,0.9273,0.0364,0.0000,0.1944,0.9560,3.0000,0.3099,0.0079,0.2964,-0.2399,-0.1585
2024-10-10,19.9200,-0.0194,0.4565,0.0387,0.0000,0.1533,0.9732,0.0000,0.3046,0.0064,0.3045,-0.4087,-0.1421
2024-10-13,19.8800,-0.0020,0.7111,0.0302,0.0000,0.1579,1.0101,0.0000,0.4194,0.0166,0.2516,-0.6423,-0.1403
2024-10-14,19.5800,-0.0152,0.3489,0.0245,0.0000,0.1296,1.0193,0.0000,0.4720,-0.0166,0.2694,-0.7452,-0.1272
2024-10-15,19.2700,-0.0160,0.6803,0.0389,0.0000,0.3509,0.9845,0.0000,0.5531,0.0087,0.2623,-1.0687,-0.1131
2024-10-16,18.9400,-0.0173,0.6379,0.0354,0.0000,0.2626,0.9694,0.0000,0.5459,0.0000,0.2631,-1.3372,-0.0977
2024-10-17,19.0600,0.0063,0.4013,0.0283,0.0000,0.2105,0.9349,1.0000,0.4009,-0.0063,0.2809,-1.0063,-0.1123
2024-10-20,18.7200,-0.0180,0.2285,0.0395,0.0000,0.1080,0.8137,0.0000,0.6264,0.0199,0.3093,-1.0913,-0.0962
2024-10-21,18.0500,-0.0364,0.3121,0.0499,0.0000,0.1550,0.8219,0.0000,0.6272,0.0016,0.3193,-1.2626,-0.0953
2024-10-22,17.5200,-0.0298,1.4023,0.0668,0.0000,0.6024,0.4642,0.0000,0.7360,-0.0028,0.3186,-2.1245,-0.0679
2024-10-23,17.8400,0.0181,0.8162,0.0482,0.0000,0.4163,0.5650,1.0000,0.6059,-0.0108,0.2844,-1.3879,-0.0846
2024-10-24,17.4000,-0.0250,0.5465,0.0345,0.0000,0.1804,0.5758,0.0000,0.7867,0.0000,0.2959,-1.5616,-0.0615
2024-10-27,17.2300,-0.0098,0.5657,0.0447,0.0000,0.1693,0.5628,0.0000,0.8470,-0.0172,0.3012,-1.6825,-0.0522
2024-10-28,17.0900,-0.0082,0.7240,0.0515,0.0000,0.3455,0.5664,0.0000,0.9052,0.0325,0.2969,-1.7944,-0.0445
2024-10-29,17.7100,0.0356,0.6447,0.0486,0.0000,0.3407,0.7754,1.0000,0.9264,0.0211,0.2737,-1.3594,-0.0779
2024-10-30,17.9600,0.0140,0.8858,0.0607,0.0000,0.3703,0.8017,2.0000,0.7110,-0.0169,0.2742,-0.8538,-0.0908
2024-10-31,18.6200,0.0361,0.3838,0.0403,0.0000,0.0753,0.9081,3.0000,0.4981,0.0290,0.2811,-0.6249,-0.1230
2024-11-03,19.2100,0.0312,1.9477,0.0630,0.0000,1.1007,0.9471,4.0000,0.4545,0.0231,0.2914,0.2320,-0.1499
2024-11-04,19.3800,0.0088,1.0325,0.0361,0.0000,0.5366,0.8246,5.0000,0.5490,0.0026,0.2911,0.6683,-0.1574
2024-11-05,19.4700,0.0046,0.6785,0.0426,0.0000,0.3472,0.7009,6.0000,0.4079,0.0010,0.2688,0.9745,-0.1613
2024-11-06,19.0900,-0.0197,0.4123,0.0309,0.0000,0.2065,0.7716,0.0000,0.5202,0.0005,0.2708,0.9662,-0.1446
2024-11-07,18.7700,-0.0169,0.5709,0.0314,0.0000,0.1480,0.7362,0.0000,0.5175,0.0052,0.2812,0.8550,-0.1300
2024-11-10,19.0800,0.0164,0.4914,0.0210,0.0000,0.1853,0.7083,1.0000,0.3880,0.0202,0.2913,1.1207,-0.1441
2024-11-11,18.2300,-0.0456,0.6409,0.0680,0.0000,0.2955,0.9148,0.0000,0.1705,0.0084,0.2928,0.8728,-0.1042
2024-11-12,17.2300,-0.0564,0.9914,0.0644,0.0000,0.4497,1.0520,0.0000,-0.0758,-0.0005,0.2900,0.4424,-0.0522
2024-11-13,17.5800,0.0201,0.4337,0.0239,0.0000,0.1763,1.0629,1.0000,-0.2481,0.0203,0.3042,0.5988,-0.0711
2024-11-17,16.9200,-0.0383,0.8924,0.0638,0.0000,0.2782,1.0115,0.0000,-0.0702,0.0000,0.3017,0.2247,-0.0349
2024-11-18,16.9600,0.0024,1.2792,0.0513,0.0000,0.4214,0.9087,1.0000,-0.1864,0.0183,0.2871,0.7655,-0.0371
2024-11-20,16.3300,-0.0379,0.9168,0.0563,0.0000,0.4249,0.9006,0.0000,-0.1881,-0.0094,0.2760,0.3287,0.0233
2024-11-21,16.7100,0.0230,0.4609,0.0281,0.0000,0.1775,0.9783,1.0000,-0.4037,0.0165,0.2532,0.4474,0.0263
2024-11-24,17.1500,0.0260,1.2793,0.0327,0.0000,0.6605,1.0641,2.0000,-0.3984,0.0168,0.2494,0.8900,0.0000
2024-11-25,17.1500,0.0000,0.7656,0.0787,0.0000,0.3718,1.0697,0.0000,-0.5379,0.0198,0.2537,0.8037,0.0105
2024-11-26,17.3300,0.0104,0.4686,0.0248,0.0000,0.2121,1.0538,1.0000,-0.6523,0.0169,0.2690,0.9142,0.0225
2024-11-27,17.7200,0.0223,1.0952,0.0446,0.0000,0.4531,1.0080,2.0000,-0.7795,0.0208,0.2680,1.3782,0.0034
2024-11-28,17.8900,0.0095,0.4524,0.0414,0.0000,0.2395,0.7914,3.0000,-0.8266,0.0147,0.2835,1.6070,-0.0145
2024-12-01,18.8600,0.0528,3.1273,0.0705,0.0000,2.1046,0.9203,4.0000,-0.5445,0.0229,0.3373,2.8829,-0.0652
2024-12-02,18.9900,0.0069,1.2211,0.0263,0.0000,0.4976,0.8004,5.0000,-0.5328,0.0053,0.3277,2.8361,-0.0716
2024-12-03,19.0000,0.0005,1.5835,0.0732,0.0000,0.7181,0.8038,6.0000,-0.4787,-0.0184,0.2987,2.6632,-0.0721
2024-12-04,19.3400,0.0177,0.8346,0.0440,0.0000,0.3416,0.5387,7.0000,-0.5060,0.0000,0.2966,2.3411,-0.0884
2024-12-05,19.1500,-0.0099,1.2406,0.0339,0.0000,0.8968,0.6054,0.0000,-0.4185,0.0078,0.2963,1.7033,-0.0893
2024-12-08,19.7000,0.0283,4.1220,0.0812,0.0000,2.4555,0.6091,1.0000,-0.6054,0.0000,0.3760,2.4255,-0.1147
2024-12-09,19.5600,-0.0071,0.7831,0.0322,0.0000,0.2718,0.6354,0.0000,-0.6653,0.0096,0.3685,1.8695,-0.1084
2024-12-10,19.3000,-0.0134,0.5591,0.0254,0.0000,0.1230,0.6992,0.0000,-0.5057,0.0072,0.3630,1.5166,-0.0964
2024-12-11,19.2100,-0.0047,1.2763,0.0224,0.0000,0.8997,0.7035,0.0000,-0.5712,0.0104,0.3581,1.0752,-0.1046
2024-12-12,19.0000,-0.0110,0.6546,0.0389,0.0000,0.3590,0.7423,0.0000,-0.1398,0.0000,0.3625,0.8245,-0.1111
2024-12-15,19.5600,0.0290,1.9738,0.0665,0.0000,1.3388,0.5628,1.0000,-0.1435,-0.0089,0.3614,1.2306,-0.1365
2024-12-16,18.9500,-0.0317,0.7521,0.0464,0.0000,0.3499,0.6863,0.0000,-0.0235,-0.0286,0.3593,0.9336,-0.1087
2024-12-17,18.6800,-0.0144,0.5097,0.0444,0.0000,0.2778,0.7032,0.0000,0.0607,-0.0132,0.3693,0.7137,-0.0958
2024-12-18,18.8100,0.0069,1.1906,0.0303,0.0000,0.7826,0.7059,1.0000,0.2952,0.0000,0.3687,0.9723,-0.1026
2024-12-19,18.7500,-0.0032,1.0251,0.0208,0.0000,0.3061,0.7020,0.0000,0.4902,0.0096,0.3487,0.5754,-0.0997
2024-12-22,18.1600,-0.0320,0.6799,0.0457,0.0000,0.1962,0.6656,0.0000,0.4740,0.0000,0.3523,0.2645,-0.0909
2024-12-23,17.9700,-0.0105,0.7049,0.0551,0.0000,0.2514,0.6671,0.0000,0.5286,-0.0061,0.3458,-0.1093,-0.0812
2024-12-25,17.7800,-0.0106,0.3151,0.0315,0.0000,0.1131,0.6648,0.0000,0.6716,-0.0250,0.3456,-0.3968,-0.0714
2024-12-26,17.8300,0.0028,0.3516,0.0247,0.0000,0.1640,0.7513,1.0000,0.8262,-0.0129,0.3622,-0.3976,-0.1509
2024-12-29,17.6300,-0.0113,0.3738,0.0221,0.0000,0.0915,0.7721,0.0000,0.9761,-0.0168,0.3574,-0.9206,-0.1753
2024-12-30,18.1800,0.0307,0.1613,0.0891,0.0000,0.0727,0.7819,1.0000,0.4085,-0.0153,0.3643,-0.9624,-0.2002
2024-12-31,18.1800,0.0000,1.1789,0.0374,0.0000,0.7056,0.6970,0.0000,0.4741,0.0011,0.3643,-1.0285,-0.2002
2025-01-01,18.5200,0.0185,0.3486,0.0270,0.0000,0.1666,0.7375,1.0000,0.3500,0.0165,0.3831,-0.7660,-0.2149
2025-01-02,18.3000,-0.0120,0.5842,0.0448,0.0000,0.2589,0.7433,0.0000,0.5704,-0.0043,0.3858,-1.0982,-0.2055
2025-01-05,17.4400,-0.0481,0.6718,0.0579,0.0000,0.0969,0.9644,0.0000,0.0557,-0.0071,0.3898,-1.4559,-0.1663
2025-01-06,18.0100,0.0322,0.7029,0.0322,0.0000,0.3704,1.0122,1.0000,0.1133,0.0075,0.3023,-1.0184,-0.1927
2025-01-07,18.0100,0.0000,0.5680,0.0167,0.0000,0.1484,1.0029,0.0000,0.0567,0.0161,0.3117,-0.9442,-0.1927
2025-01-08,18.0600,0.0028,0.7902,0.0576,0.0000,0.2198,0.9916,1.0000,-0.0651,0.0011,0.3104,-0.3747,-0.1949
2025-01-09,17.2000,-0.0488,1.3741,0.0866,0.0000,0.5393,1.2114,0.0000,-0.1721,0.0238,0.3044,-1.1544,-0.1547
2025-01-12,16.8900,-0.0182,2.6493,0.0799,0.0000,1.7422,1.2275,0.0000,-0.1261,-0.0116,0.3397,-2.3827,-0.1391
2025-01-13,17.0100,0.0071,0.7515,0.0335,0.0000,0.2502,1.1315,1.0000,-0.2036,0.0112,0.3066,-1.8073,-0.1452
2025-01-14,17.1000,0.0053,1.0273,0.0351,0.0000,0.4223,1.1395,2.0000,-0.4101,-0.0135,0.3063,-1.1528,-0.1497
2025-01-15,17.1900,0.0052,0.5843,0.0227,0.0000,0.2943,1.0927,3.0000,-0.5513,0.0170,0.3117,-0.7523,-0.1542
2025-01-16,16.8800,-0.0182,1.1386,0.0563,0.0000,0.5856,1.0989,0.0000,-0.3762,-0.0105,0.2993,-1.3616,-0.1386
2025-01-19,17.0600,0.0106,0.4155,0.0176,0.0000,0.1642,0.9360,1.0000,-0.4436,0.0184,0.3068,-1.0548,-0.1477
2025-01-20,16.5100,-0.0328,0.9825,0.0430,0.0000,0.4836,0.8519,0.0000,-0.4446,0.0000,0.3063,-1.5265,-0.1193
2025-01-21,16.5900,0.0048,0.4119,0.0374,0.0000,0.1518,0.8668,1.0000,-0.5523,0.0006,0.3222,-1.1488,-0.1236
2025-01-22,16.5600,-0.0018,2.1811,0.0725,0.0000,1.3811,0.8612,0.0000,-0.6219,-0.0024,0.3369,-2.1320,-0.1220
2025-01-23,15.1400,-0.0896,3.4249,0.1493,0.0000,1.4265,1.2224,0.0000,-1.2594,0.0181,0.3872,-3.0379,-0.0396
2025-01-26,14.5400,-0.0404,5.8308,0.0440,0.0000,0.4082,1.2569,0.0000,-1.0617,0.0000,0.5029,-3.5919,0.0585
2025-01-27,15.3900,0.0568,1.2470,0.0942,0.0000,0.4158,1.4930,1.0000,-0.5841,0.0179,0.4772,-2.4249,0.0448
2025-01-28,16.0800,0.0439,1.1297,0.0585,0.0000,0.4023,1.6064,2.0000,-0.4940,0.0169,0.4770,-1.7684,0.1088
2025-01-29,17.8300,0.1033,2.2623,0.1234,0.0000,0.8463,1.9267,3.0000,0.4242,-0.0050,0.4730,-0.9135,0.0791
2025-01-30,19.4800,0.0885,4.4651,0.1129,0.0000,1.1931,2.0078,4.0000,0.3834,0.0236,0.5235,0.9572,-0.0123
2025-01-31,20.0700,0.0298,2.1495,0.1330,0.0000,0.8774,2.0021,5.0000,0.2260,0.0005,0.5189,1.7388,-0.0414
2025-02-02,19.6200,-0.0227,0.5576,0.0285,0.0000,0.1443,1.9893,0.0000,0.4011,-0.0005,0.5097,1.3944,-0.0194
2025-02-03,19.9000,0.0142,0.4118,0.0377,0.0000,0.1185,1.9828,1.0000,0.3484,0.0183,0.5006,1.4425,-0.0332
2025-02-04,19.2400,-0.0337,0.3681,0.0520,0.0000,0.1490,2.0363,0.0000,0.4275,0.0050,0.4984,1.2259,0.0057
2025-02-05,20.4300,0.0600,1.9712,0.1126,0.0000,0.4110,1.6304,1.0000,0.2270,0.0213,0.4946,1.7864,-0.0529
2025-02-06,19.5000,-0.0466,0.7781,0.0656,0.0000,0.2337,1.6490,0.0000,0.2266,-0.0210,0.4969,1.3441,-0.0077
2025-02-09,19.3500,-0.0077,0.3595,0.0517,0.0000,0.1010,1.6616,0.0000,0.2752,0.0256,0.4928,1.1114,0.0481
2025-02-10,20.2800,0.0469,2.0631,0.0789,0.0000,0.4176,1.6533,1.0000,0.1514,0.0320,0.4833,1.6471,0.0957
2025-02-11,22.2200,0.0914,7.5345,0.1049,0.0000,3.1517,1.5368,2.0000,0.0859,0.0099,0.6053,3.3574,0.0095
2025-02-12,22.6100,0.0174,2.3498,0.1017,0.0000,0.8803,1.3585,3.0000,-0.0144,-0.0018,0.5938,2.9209,-0.0080
2025-02-13,22.4300,-0.0080,0.9115,0.0660,0.0000,0.1934,1.3822,0.0000,0.0411,0.0349,0.5639,2.1667,0.0040
2025-02-16,22.5200,0.0040,0.8008,0.0555,0.0000,0.2495,1.3351,1.0000,-0.0323,0.0232,0.5406,1.9830,0.0191
2025-02-17,22.9500,0.0189,1.0566,0.0649,0.0000,0.1972,1.3370,2.0000,-0.0786,0.0431,0.5066,1.8920,0.0349
2025-02-18,25.2600,0.0959,2.6464,0.1580,0.0000,0.8469,1.3775,3.0000,-0.1742,0.0148,0.5104,2.0941,-0.0598
2025-02-19,27.1300,0.0714,3.2886,0.1449,0.0000,1.9899,1.3787,4.0000,0.0031,0.0095,0.5299,2.3289,-0.1246
2025-02-20,30.2200,0.1079,2.7348,0.1224,0.0000,0.9643,1.2572,5.0000,-0.0701,0.0247,0.5407,2.3759,-0.2141
2025-02-23,36.2600,0.1822,8.1026,0.1368,0.0000,6.0486,1.4604,6.0000,0.5454,0.0589,0.6561,3.2209,-0.3450
2025-02-24,34.4400,-0.0515,0.3109,0.0453,0.0000,0.2321,1.6970,0.0000,0.4972,-0.0347,0.6459,2.4610,-0.3104
2025-02-26,32.7100,-0.0515,0.0107,0.0000,0.0000,0.0080,1.8208,0.0000,0.6466,-0.0502,0.6629,2.0521,-0.2739
2025-02-27,31.0700,-0.0514,0.0146,0.0000,0.0000,0.0109,1.9372,0.0000,0.8157,-0.0501,0.6891,1.7671,-0.2356
2025-03-02,29.5100,-0.0515,0.1348,0.0000,0.0000,0.1006,2.0090,0.0000,0.8581,-0.0502,0.7006,1.5385,-0.1952
2025-03-03,28.0300,-0.0515,0.0132,0.0018,0.0000,0.0098,2.0727,0.0000,0.8265,-0.0485,0.7067,1.3712,-0.1527
2025-03-04,26.6200,-0.0516,0.0758,0.0000,0.0000,0.0566,2.1305,0.0000,0.8626,-0.0503,0.7068,1.2250,-0.1078
2025-03-05,25.2800,-0.0516,0.0129,0.0000,0.0000,0.0096,2.0473,0.0000,0.8458,-0.0503,0.7106,1.1075,-0.0605
2025-03-06,26.5400,0.0486,0.5377,0.0953,0.0000,0.4014,1.9944,1.0000,0.8763,-0.0502,0.7075,1.0706,-0.1051
2025-03-09,25.2100,-0.0514,0.2480,0.1027,0.0000,0.1851,1.7877,0.0000,0.8694,0.0399,0.7030,0.9434,-0.0579
2025-03-10,23.9400,-0.0517,0.3166,0.0004,0.0000,0.2363,0.7280,0.0000,0.8801,-0.0500,0.6901,0.8170,-0.0079
2025-03-11,23.8100,-0.0054,0.5481,0.0571,0.0000,0.4091,0.7692,0.0000,1.0130,-0.0501,0.6877,0.6597,-0.0025
2025-03-12,25.0000,0.0488,0.5595,0.0956,0.0000,0.4177,0.9724,1.0000,1.1167,-0.0340,0.6904,0.6642,-0.0500
2025-03-16,23.7500,-0.0513,0.1353,0.0316,0.0000,0.1010,0.9641,0.0000,1.1959,-0.0380,0.7117,0.5690,0.0000
2025-03-17,23.7500,0.0000,0.0000,0.0000,0.0000,0.0000,0.9595,0.0000,1.1790,0.0000,0.7332,0.4943,0.0720
2025-03-18,25.4600,0.0695,0.1135,0.0471,0.0000,0.0848,1.1120,1.0000,0.9955,0.0716,0.7453,0.4377,0.0499
2025-03-19,26.7300,0.0487,0.0383,0.0086,0.0000,0.0286,1.1226,2.0000,0.9133,0.0463,0.7650,0.3658,0.0498
2025-03-20,28.0600,0.0486,0.1946,0.0360,0.0000,0.1453,1.0818,3.0000,1.0133,0.0363,0.7843,0.3265,0.0499
2025-03-23,29.4600,0.0487,0.0347,0.0326,0.0000,0.0259,1.0838,4.0000,1.0743,0.0478,0.8089,0.2403,0.0499
2025-03-24,30.9300,0.0487,0.1132,0.0000,0.0000,0.0845,0.9998,5.0000,1.1906,0.0499,0.8231,0.3646,0.0197
2025-03-25,31.5400,0.0195,1.0520,0.0390,0.0000,0.7853,0.8244,6.0000,0.3128,0.0197,0.5563,1.1881,0.0200
2025-03-26,32.1700,0.0198,0.2919,0.0000,0.0000,0.2179,0.7905,7.0000,0.1380,0.0200,0.5789,1.3095,0.0199
2025-03-27,32.8100,0.0197,0.2712,0.0000,0.0000,0.2025,0.7785,8.0000,-0.0354,0.0199,0.5683,1.3862,0.0198
2025-03-31,33.4600,0.0196,0.1545,0.0000,0.0000,0.1153,0.4845,9.0000,-0.2099,0.0198,0.5646,1.3743,-0.0377
2025-04-01,34.1200,0.0195,0.3000,0.0000,0.0000,0.2239,0.4216,10.0000,-0.3875,0.0197,0.5790,1.3894,-0.1035
2025-04-02,34.8000,0.0197,0.2163,0.0000,0.0000,0.1614,0.3403,11.0000,-0.5711,0.0199,0.5709,1.3535,-0.1210
2025-04-03,35.4900,0.0196,0.3614,0.0000,0.0000,0.2698,0.3182,12.0000,-0.7590,0.0198,0.5744,1.3701,-0.1381
2025-04-06,36.1900,0.0195,1.4081,0.0000,0.0000,1.0511,0.2782,13.0000,-0.9442,0.0197,0.5436,1.7979,-0.1547
2025-04-07,36.9100,0.0197,0.3865,0.0000,0.0000,0.2885,0.2086,14.0000,-0.9075,0.0199,0.5421,1.7754,-0.1712
2025-04-08,37.6400,0.0196,0.5259,0.0000,0.0000,0.3926,0.0020,15.0000,-1.0534,0.0198,0.5509,1.7148,-0.1873
2025-04-10,38.3900,0.0197,0.3802,0.0000,0.0000,0.2838,0.0020,16.0000,-0.9889,0.0199,0.5539,1.5962,-0.2032
2025-04-14,39.1500,0.0196,0.5035,0.0000,0.0000,0.3759,0.0017,17.0000,-1.1752,0.0198,0.5027,1.6026,-0.2186
2025-04-15,39.9300,0.0197,0.4961,0.0000,0.0000,0.3703,0.0018,18.0000,-1.1271,0.0199,0.4052,1.4998,-0.2339
2025-04-16,40.7200,0.0196,0.4860,0.0000,0.0000,0.3628,0.0018,19.0000,1.2104,0.0198,0.4087,1.4304,-0.2488
2025-04-20,39.9000,-0.0203,4.8672,0.0000,0.0000,3.6333,0.2880,0.0000,0.2409,-0.0201,0.4647,0.3558,-0.2333
2025-04-21,39.1000,-0.0203,4.0008,0.0000,0.0000,2.9866,0.3831,0.0000,-0.6027,-0.0201,0.5104,-0.7936,-0.2176
2025-04-22,38.3100,-0.0204,0.4353,0.0000,0.0000,0.3249,0.4386,0.0000,-0.6455,-0.0202,0.5039,-1.0224,-0.2015
2025-04-23,37.5400,-0.0203,5.8192,0.0005,0.0000,4.3441,0.4685,0.0000,-0.6509,-0.0201,0.5850,-2.6740,-0.1851
2025-04-24,36.7800,-0.0205,0.6777,0.0000,0.0000,0.5059,0.4775,0.0000,-0.7151,-0.0202,0.5700,-2.4015,-0.1683
2025-04-27,36.0400,-0.0203,2.5394,0.0205,0.0000,1.8957,0.4674,0.0000,-0.9453,-0.0201,0.5684,-2.5235,-0.1512
2025-04-28,35.3100,-0.0205,0.4943,0.0000,0.0000,0.3690,0.4368,0.0000,-0.6811,-0.0203,0.5733,-2.1724,-0.1337
2025-04-29,34.6000,-0.0203,0.2396,0.0000,0.0000,0.1788,0.3822,0.0000,-0.4421,-0.0201,0.5770,-1.8916,-0.1159
2025-05-01,33.9000,-0.0204,0.0903,0.0000,0.0000,0.0674,0.2860,0.0000,-0.2177,-0.0202,0.5905,-1.6626,-0.0976
2025-05-04,32.2000,-0.0514,6.1466,0.0525,0.0000,4.5885,0.2204,0.0000,-0.3680,-0.0413,0.6404,-2.4774,-0.0500
2025-05-05,30.5900,-0.0513,0.8577,0.0000,0.0000,0.6403,0.2905,0.0000,-0.3021,-0.0500,0.6284,-2.1663,0.0078
2025-05-06,30.8300,0.0078,2.2439,0.0989,0.0000,1.6751,0.3793,1.0000,-0.2939,-0.0500,0.6064,-1.5020,0.0496
2025-05-07,32.3600,0.0484,1.1694,0.0148,0.0000,0.8730,0.6340,2.0000,0.0349,0.0500,0.5868,-1.1391,0.0491
2025-05-08,33.9500,0.0480,0.9448,0.0951,0.0000,0.7053,0.7757,3.0000,0.1829,-0.0420,0.5862,-0.8606,0.0498
2025-05-11,35.6400,0.0486,0.7714,0.0073,0.0000,0.5758,0.8661,4.0000,0.2502,0.0498,0.5700,-0.6281,0.0376
2025-05-12,37.4200,0.0487,0.4903,0.0000,0.0000,0.3660,0.9207,5.0000,0.2666,0.0499,0.5624,-0.4544,-0.0118
2025-05-13,37.7400,0.0085,4.7086,0.0978,0.0000,3.5149,0.9029,6.0000,0.3185,0.0500,0.5862,0.9326,-0.0201
2025-05-14,36.9800,-0.0203,0.3267,0.0000,0.0000,0.2439,0.9011,0.0000,0.5010,-0.0201,0.5771,0.9038,0.0084
2025-05-15,37.5000,0.0140,0.8051,0.0120,0.0000,0.6010,0.8773,1.0000,0.5279,0.0141,0.5507,1.2214,-0.0256
2025-05-18,37.5000,0.0000,0.2445,0.0107,0.0000,0.1825,0.7479,0.0000,0.6320,0.0000,0.5413,1.2940,-0.0453
2025-05-19,38.2500,0.0198,0.2187,0.0110,0.0000,0.1633,0.5487,1.0000,0.4420,0.0200,0.5641,1.3697,-0.0829
2025-05-20,39.0100,0.0197,0.0536,0.0000,0.0000,0.0400,0.5384,2.0000,0.2595,0.0199,0.5958,1.3362,-0.1189
2025-05-21,39.7900,0.0198,0.0983,0.0000,0.0000,0.0734,0.5022,3.0000,0.0793,0.0200,0.5983,1.3099,-0.1536
2025-05-22,40.5800,0.0197,0.0554,0.0000,0.0000,0.0413,0.4550,4.0000,-0.1002,0.0199,0.6226,1.2149,-0.1868
2025-05-25,41.3900,0.0198,0.0455,0.0000,0.0000,0.0339,0.3923,5.0000,-0.2839,0.0200,0.6379,1.1247,-0.2426
2025-05-26,42.2100,0.0196,0.0710,0.0000,0.0000,0.0530,0.2955,6.0000,-0.4739,0.0198,0.6661,1.0370,-0.2573
2025-05-27,43.0500,0.0197,0.1011,0.0000,0.0000,0.0755,0.2986,7.0000,-0.6761,0.0199,0.6746,0.9624,-0.2718
2025-05-28,43.9100,0.0198,0.0473,0.0000,0.0000,0.0353,0.1412,8.0000,-0.8956,0.0200,0.6796,0.8835,-0.2865
2025-05-29,43.0300,-0.0202,3.9494,0.0407,0.0000,2.9483,0.3008,0.0000,-0.8963,-0.0200,0.6614,-0.1571,-0.2719
2025-06-01,42.1600,-0.0204,0.5328,0.0000,0.0000,0.3977,0.3774,0.0000,-0.7059,-0.0202,0.6592,-0.3737,-0.2569
2025-06-02,41.3100,-0.0204,0.1481,0.0000,0.0000,0.1106,0.4312,0.0000,-0.1508,-0.0202,0.6776,-0.5623,-0.2416
2025-06-03,40.4800,-0.0203,0.2403,0.0000,0.0000,0.1794,0.4621,0.0000,-0.1144,-0.0201,0.6929,-0.7613,-0.2260
2025-06-04,39.6700,-0.0202,0.3188,0.0000,0.0000,0.2380,0.4700,0.0000,0.0154,-0.0200,0.7058,-0.9773,-0.2102
2025-06-05,38.8700,-0.0204,0.1506,0.0000,0.0000,0.1125,0.4598,0.0000,0.1211,-0.0202,0.7233,-1.1377,-0.1940
2025-06-08,39.6400,0.0196,1.4416,0.0391,0.0000,1.0762,0.4725,1.0000,-0.0547,0.0198,0.7220,-0.8459,-0.2096
2025-06-09,38.8400,-0.0204,0.4091,0.0000,0.0000,0.3054,0.4444,0.0000,-0.2827,-0.0202,0.7251,-1.0850,-0.1934
2025-06-10,38.0600,-0.0203,0.4400,0.0000,0.0000,0.3285,0.3893,0.0000,-0.1010,-0.0201,0.6683,-1.0672,-0.1768
2025-06-11,37.2900,-0.0204,1.7354,0.0000,0.0000,1.2955,0.2917,0.0000,-0.1011,-0.0202,0.6664,-1.2903,-0.1628
2025-06-12,36.5400,-0.0203,0.4232,0.0000,0.0000,0.3159,0.2991,0.0000,0.1057,-0.0201,0.6734,-1.2295,-0.1456
2025-06-15,35.8000,-0.0205,0.0806,0.0000,0.0000,0.0602,0.3047,0.0000,0.2177,-0.0203,0.6946,-1.1217,-0.1279
2025-06-16,35.0800,-0.0203,0.5348,0.0000,0.0000,0.3992,0.3045,0.0000,0.4421,-0.0201,0.6951,-1.0993,-0.1100
2025-06-17,34.3700,-0.0204,5.5807,0.0410,0.0000,4.1660,0.3048,0.0000,0.6811,-0.0202,0.7093,-2.0643,-0.0916
2025-06-18,33.6800,-0.0203,1.0030,0.0000,0.0000,0.7487,0.3042,0.0000,0.9453,-0.0201,0.6938,-1.9701,-0.0730
2025-06-19,33.0000,-0.0204,2.9821,0.0000,0.0000,2.2261,0.3051,0.0000,1.2505,-0.0202,0.6747,-2.2558,-0.0539
2025-06-22,31.3500,-0.0513,0.5922,0.0000,0.0000,0.4421,0.2358,0.0000,0.8712,-0.0500,0.6547,-2.0524,-0.0041
2025-06-23,31.7100,0.0114,4.2660,0.0987,0.0000,3.1846,0.3595,1.0000,0.8343,-0.0501,0.6450,-0.8075,-0.0155
2025-06-24,31.8300,0.0038,1.3522,0.0716,0.0000,1.0094,0.4046,2.0000,0.7743,-0.0350,0.6199,-0.3096,-0.0192
2025-06-25,31.3300,-0.0158,0.2260,0.0559,0.0000,0.1687,0.4060,0.0000,0.7618,0.0053,0.6079,-0.3012,-0.0035
2025-06-26,32.8800,0.0483,0.5715,0.0666,0.0000,0.4266,0.6603,1.0000,1.6005,-0.0201,0.5912,-0.0645,-0.0505
2025-06-29,34.5200,0.0487,0.9232,0.0324,0.0000,0.6892,0.7939,2.0000,1.3878,0.0158,0.5859,0.2828,-0.0956
2025-06-30,35.1500,0.0181,1.4425,0.0350,0.0000,1.0768,0.7959,3.0000,1.1149,0.0498,0.5608,0.8166,-0.1118
2025-07-01,33.7500,-0.0406,1.4513,0.0773,0.0000,1.0834,0.8398,0.0000,1.0250,0.0242,0.5372,0.2771,-0.0750
2025-07-02,32.1400,-0.0489,0.7000,0.0678,0.0000,0.5226,0.9007,0.0000,0.8787,-0.0104,0.5214,0.0282,-0.0286
2025-07-03,32.0700,-0.0022,0.3123,0.0452,0.0000,0.2331,0.9173,0.0000,0.7768,-0.0090,0.5094,-0.0620,-0.0265
2025-07-06,32.1100,0.0012,0.1671,0.0526,0.0000,0.1248,0.8259,1.0000,0.8843,-0.0209,0.5345,0.0697,-0.0277
2025-07-07,32.0000,-0.0034,0.1174,0.0641,0.0000,0.0876,0.8593,0.0000,0.7885,-0.0037,0.5455,0.0833,-0.0244
2025-07-08,31.4200,-0.0183,0.2348,0.0573,0.0000,0.1753,1.0183,0.0000,0.7811,0.0000,0.5444,0.0447,-0.0064
2025-07-09,31.2200,-0.0064,0.3793,0.0464,0.0000,0.2832,1.0220,0.0000,0.7073,0.0029,0.5564,-0.0729,0.0112
2025-07-10,31.7500,0.0168,0.1909,0.0378,0.0000,0.1425,0.9088,1.0000,0.4975,0.0314,0.5572,0.0617,-0.0057
2025-07-13,31.5700,-0.0057,0.0881,0.0371,0.0000,0.0658,0.7068,0.0000,0.4234,0.0154,0.5534,0.0702,0.0114
2025-07-14,31.9300,0.0113,0.2603,0.0357,0.0000,0.1943,0.6902,1.0000,0.2488,0.0000,0.5529,0.2386,0.0128
2025-07-15,33.5200,0.0486,0.1888,0.0453,0.0000,0.1409,0.8229,2.0000,0.1674,0.0022,0.5477,0.2652,-0.0543
2025-07-16,35.1900,0.0486,1.6536,0.0054,0.0000,1.2344,0.7621,3.0000,0.0299,0.0471,0.5421,0.8917,-0.1174
2025-07-17,36.9400,0.0485,0.9801,0.0769,0.0000,0.7317,0.8568,4.0000,-0.1351,-0.0276,0.5293,1.2952,-0.1762
2025-07-20,35.9200,-0.0280,3.2448,0.0810,0.0000,2.4222,0.9669,0.0000,0.0234,-0.0387,0.5461,-1.0828,-0.1528
2025-07-21,35.2000,-0.0202,0.4030,0.0000,0.0000,0.3009,1.0305,0.0000,0.1540,-0.0200,0.4951,-1.4267,-0.1355
2025-07-22,34.4900,-0.0204,0.0256,0.0000,0.0000,0.0191,1.0555,0.0000,0.2430,-0.0202,0.5282,-1.3154,-0.1177
2025-07-23,33.8000,-0.0202,0.0079,0.0000,0.0000,0.0059,1.0897,0.0000,0.2504,-0.0200,0.5511,-1.2245,-0.0997
2025-07-24,33.1200,-0.0203,0.2215,0.0000,0.0000,0.1654,1.1360,0.0000,0.4488,-0.0201,0.5685,-1.2235,-0.0812
2025-07-27,32.4500,-0.0204,0.1658,0.0000,0.0000,0.1238,1.1847,0.0000,0.6387,-0.0202,0.5933,-1.1806,-0.0622
2025-07-28,33.0900,0.0195,0.9756,0.0193,0.0000,0.7283,1.1946,1.0000,0.6316,0.0197,0.5932,-0.6735,-0.0804
2025-07-29,33.0500,-0.0012,0.1757,0.0209,0.0000,0.1312,1.0884,0.0000,0.6562,-0.0012,0.6040,-0.6810,-0.0793
2025-07-30,33.4500,0.0120,0.2201,0.0135,0.0000,0.1643,0.9184,1.0000,0.9035,0.0121,0.6217,-0.5152,-0.0903
2025-07-31,33.6000,0.0045,0.3272,0.0000,0.0000,0.2442,0.6310,2.0000,0.8598,0.0045,0.6323,-0.3246,-0.1021
2025-08-03,34.2700,0.0197,0.1944,0.0371,0.0000,0.1451,0.6761,3.0000,0.7233,0.0199,0.6426,-0.1925,-0.1196
2025-08-04,34.8800,0.0176,0.1772,0.0011,0.0000,0.1323,0.7013,4.0000,0.5809,0.0178,0.6491,-0.0772,-0.1534
2025-08-05,34.1800,-0.0203,0.0219,0.0205,0.0000,0.0163,0.7001,0.0000,0.5746,-0.0201,0.6745,-0.0666,-0.1360
2025-08-06,33.4900,-0.0204,0.0017,0.0149,0.0000,0.0013,0.7005,0.0000,0.5837,-0.0202,0.7037,-0.0687,-0.1182
2025-08-07,33.0000,-0.0147,0.4646,0.0203,0.0000,0.3468,0.6782,0.0000,0.7533,-0.0146,0.7047,-0.2491,-0.1052
2025-08-10,33.0000,0.0000,0.0599,0.0179,0.0000,0.0447,0.6222,0.0000,0.7227,0.0000,0.7156,-0.2342,-0.1052
2025-08-11,32.3400,-0.0202,0.0729,0.0204,0.0000,0.0544,0.6225,0.0000,0.8544,-0.0200,0.7355,-0.2334,-0.0869
2025-08-12,31.7000,-0.0200,0.3657,0.0252,0.0000,0.2730,0.6597,0.0000,1.0786,-0.0198,0.7372,-0.3380,-0.0685
2025-08-13,31.0600,-0.0204,0.0694,0.0016,0.0000,0.0518,0.6464,0.0000,1.2437,-0.0202,0.7501,-0.2703,-0.0493
2025-08-17,30.4300,-0.0205,0.3188,0.0256,0.0000,0.2380,0.6427,0.0000,0.9318,-0.0203,0.7547,-0.4903,-0.0296
2025-08-18,31.0300,0.0195,2.5348,0.0135,0.0000,1.8922,0.6410,1.0000,0.7389,0.0197,0.5306,0.6913,-0.0483
2025-08-19,31.6000,0.0182,0.8489,0.0051,0.0000,0.6337,0.6454,2.0000,0.5002,0.0184,0.5204,0.9573,-0.0655
2025-08-20,32.2300,0.0197,1.2282,0.0071,0.0000,0.9168,0.7219,3.0000,0.2819,0.0199,0.4890,1.3663,-0.0838
2025-08-21,32.8700,0.0197,0.1285,0.0000,0.0000,0.0959,0.7546,4.0000,0.0696,0.0199,0.4837,1.2919,-0.1016
2025-08-24,33.0000,0.0039,2.1626,0.0164,0.0000,1.6144,0.7382,5.0000,-0.0798,0.0040,0.4951,2.0982,-0.1052
2025-08-25,32.3400,-0.0202,2.0656,0.0000,0.0000,1.5420,0.7812,0.0000,-0.0791,-0.0200,0.4976,1.0672,-0.0869
2025-08-27,31.6900,-0.0203,0.7055,0.0019,0.0000,0.5267,0.7816,0.0000,0.1279,-0.0201,0.4438,0.6288,-0.0682
2025-08-28,31.1000,-0.0188,2.0704,0.0177,0.0000,1.5456,0.7773,0.0000,0.2367,-0.0186,0.4449,-0.6043,-0.0505
2025-08-31,31.1600,0.0019,2.3085,0.0825,0.0000,1.7233,0.7360,1.0000,0.3097,0.0100,0.4478,0.7806,-0.0523
2025-09-01,30.1700,-0.0323,1.2758,0.0504,0.0000,0.9524,0.8017,0.0000,0.3708,-0.0324,0.4471,-0.0608,-0.0212
2025-09-02,30.1800,0.0003,1.5203,0.0507,0.0000,1.1349,0.7536,1.0000,0.4470,-0.0056,0.4359,0.9058,-0.0215
2025-09-03,29.5300,-0.0218,1.3093,0.0576,0.0000,0.9774,0.7252,0.0000,0.6789,-0.0076,0.4203,0.0236,0.0027
2025-09-04,29.6100,0.0027,0.6709,0.0338,0.0000,0.5008,0.6454,1.0000,0.4980,0.0014,0.3931,0.4959,0.0132
2025-09-07,30.2700,0.0220,0.3553,0.0519,0.0000,0.2652,0.6627,2.0000,0.3095,0.0000,0.3736,0.7269,-0.0089
2025-09-08,30.0000,-0.0090,1.8476,0.0537,0.0000,1.3792,0.6425,0.0000,0.2703,-0.0155,0.3768,-0.6344,0.0167
2025-09-09,30.5000,0.0165,0.8764,0.0525,0.0000,0.6542,0.7129,1.0000,0.1846,-0.0163,0.3485,0.0063,0.0016
2025-09-10,30.6000,0.0033,0.7407,0.0490,0.0000,0.5529,0.7064,2.0000,0.0246,-0.0197,0.3233,0.5322,-0.0016
2025-09-11,31.0300,0.0140,0.6016,0.0387,0.0000,0.4491,0.7006,3.0000,-0.1923,-0.0111,0.3309,0.9207,-0.0274
2025-09-14,33.9700,0.0905,12.5451,0.1392,0.0000,8.0728,1.3109,4.0000,1.6412,0.0474,0.6852,4.2064,-0.1116
2025-09-15,34.8700,0.0261,1.9058,0.0685,0.0000,0.8546,1.2108,5.0000,1.4769,0.0009,0.6818,3.1490,-0.1422
2025-09-16,32.8500,-0.0597,1.3788,0.0852,0.0000,0.5219,1.5136,0.0000,0.8015,0.0037,0.6843,2.2411,-0.0895
2025-09-17,34.5000,0.0490,1.5250,0.1136,0.0000,0.7171,1.5261,1.0000,0.7002,-0.0015,0.6709,2.1354,-0.1388
2025-09-18,34.7900,0.0084,0.7366,0.0848,0.0000,0.2961,1.5195,2.0000,0.7665,-0.0003,0.6610,1.9315,-0.1460
2025-09-21,33.1300,-0.0489,0.4063,0.0736,0.0000,0.1923,1.6885,0.0000,0.7508,0.0190,0.6383,1.6153,-0.1032
2025-09-22,32.8600,-0.0082,4.8798,0.0642,0.0000,0.2918,1.6898,0.0000,0.8076,-0.0039,0.6738,0.4174,-0.0959
2025-09-23,32.2000,-0.0203,0.4854,0.0590,0.0000,0.1673,1.7179,0.0000,0.8076,0.0195,0.6723,0.2568,-0.0773
2025-09-24,32.0300,-0.0053,0.3035,0.0549,0.0000,0.1557,1.7295,0.0000,0.7677,0.0252,0.6611,0.1391,-0.0724
2025-09-25,31.3800,-0.0205,0.1962,0.0583,0.0000,0.1151,1.7521,0.0000,0.7691,0.0000,0.6680,0.0434,-0.0532
2025-09-28,30.9300,-0.0144,0.4866,0.0792,0.0000,0.2462,1.2601,0.0000,0.8346,-0.0264,0.6666,-0.1193,-0.0446
2025-09-29,30.9600,0.0010,0.2373,0.0452,0.0000,0.1360,1.1802,1.0000,0.7875,-0.0123,0.6665,-0.1069,-0.0455
2025-09-30,30.5500,-0.0133,0.3267,0.0619,0.0000,0.2336,0.9865,0.0000,0.8403,-0.0278,0.6652,-0.2369,-0.0462
2025-10-02,33.1000,0.0802,0.7033,0.1208,0.0000,0.3647,1.2467,1.0000,0.7384,-0.0344,0.6553,-0.0993,-0.1196
2025-10-05,32.5200,-0.0177,0.3055,0.0397,0.0000,0.1077,1.2470,0.0000,0.7936,-0.0178,0.6456,-0.2439,-0.1310
2025-10-06,32.2600,-0.0080,0.2840,0.0307,0.0000,0.1273,1.1238,0.0000,0.9298,-0.0129,0.6312,-0.3889,-0.1240
2025-10-07,31.5700,-0.0216,0.3750,0.0634,0.0000,0.1107,1.1449,0.0000,0.9469,0.0223,0.6314,-0.5818,-0.1080
2025-10-08,31.9200,0.0110,0.2385,0.0758,0.0000,0.1281,1.1363,1.0000,0.9760,-0.0016,0.6282,-0.5850,-0.1178
2025-10-09,31.4900,-0.0136,0.1164,0.0445,0.0000,0.0308,1.1473,0.0000,1.0338,-0.0226,0.6318,-0.7152,-0.1057
2025-10-12,30.1800,-0.0425,0.3897,0.0497,0.0000,0.0675,1.2187,0.0000,1.1015,-0.0152,0.6176,-0.9574,-0.0669
2025-10-13,30.2200,0.0013,0.8492,0.0381,0.0000,0.1262,1.2144,1.0000,0.9973,0.0229,0.4951,-0.6548,-0.0682
2025-10-14,29.9100,-0.0103,0.5223,0.0428,0.0000,0.1953,1.2193,0.0000,1.2191,-0.0156,0.4902,-0.7114,-0.0585
2025-10-15,30.9400,0.0339,1.7745,0.0960,0.0000,1.0547,1.2775,1.0000,1.3259,0.0047,0.4956,-0.1461,-0.0899
2025-10-16,29.7100,-0.0406,0.9803,0.0505,0.0000,0.3068,0.8415,0.0000,1.5812,-0.0133,0.4868,-0.3412,-0.0522
2025-10-19,29.9000,0.0064,0.3366,0.0465,0.0000,0.1140,0.8598,1.0000,1.5991,-0.0202,0.5004,-0.1056,-0.0582
2025-10-20,29.8200,-0.0027,0.2199,0.0671,0.0000,0.0435,0.8645,0.0000,1.8722,0.0100,0.5162,0.0238,-0.0557
2025-10-22,29.8900,0.0023,0.2551,0.0194,0.0000,0.0743,0.8539,1.0000,1.7976,-0.0134,0.3268,0.3939,-0.0579
2025-10-23,29.9400,0.0017,0.5439,0.0167,0.0000,0.1514,0.8351,2.0000,1.7176,-0.0087,0.3363,1.0066,-0.0595
2025-10-26,29.7900,-0.0050,0.8528,0.0326,0.0000,0.1422,0.8320,0.0000,1.7161,-0.0127,0.3355,0.2623,-0.0547
2025-10-27,29.8000,0.0003,0.6929,0.0218,0.0000,0.2153,0.6789,1.0000,1.6575,-0.0164,0.3287,0.9708,-0.0550
2025-10-28,29.5500,-0.0084,0.4370,0.0250,0.0000,0.1729,0.6845,0.0000,1.6451,0.0000,0.3418,0.4987,-0.0470
2025-10-29,29.7900,0.0081,0.7234,0.0430,0.0000,0.3307,0.6869,1.0000,1.5843,-0.0122,0.3395,1.1197,-0.0547
2025-10-30,29.1400,-0.0221,0.4630,0.0343,0.0000,0.1176,0.5683,0.0000,1.5682,-0.0154,0.3529,0.6265,-0.0336
2025-11-02,29.3000,0.0055,0.2981,0.0242,0.0000,0.0425,0.3409,1.0000,-0.2394,0.0021,0.3584,0.9071,-0.0389
2025-11-03,28.2600,-0.0361,0.6810,0.0722,0.0000,0.2025,0.5177,0.0000,-0.2654,0.0031,0.3632,0.3355,-0.0035
2025-11-05,28.5000,0.0085,0.7347,0.0305,0.0000,0.2649,0.5449,1.0000,-0.3656,0.0014,0.3656,0.8668,-0.0119
2025-11-06,28.1600,-0.0120,0.9831,0.0621,0.0000,0.4082,0.5537,0.0000,-0.4377,-0.0351,0.3639,-0.0078,0.0028
2025-11-09,29.2200,0.0370,0.7819,0.1205,0.0000,0.2383,0.7696,1.0000,-0.0480,-0.0352,0.3642,0.5956,-0.0335
2025-11-10,28.9400,-0.0096,0.3299,0.0335,0.0000,0.1407,0.7766,0.0000,-0.0762,0.0048,0.3676,0.2337,-0.0242
2025-11-11,28.8700,-0.0024,0.2162,0.0236,0.0000,0.0636,0.7856,0.0000,0.0487,-0.0003,0.3909,-0.1313,-0.0218
2025-11-12,29.0200,0.0052,3.0299,0.0513,0.0000,0.4766,0.8040,1.0000,0.0169,-0.0215,0.4154,2.7476,-0.0269
2025-11-13,29.2900,0.0093,0.6178,0.0478,0.0000,0.0778,0.8060,2.0000,-0.1403,0.0162,0.4189,2.8646,-0.0358
2025-11-16,29.9000,0.0206,0.8586,0.0231,0.0000,0.3134,0.7914,3.0000,-0.3933,0.0242,0.3451,2.6940,-0.0555
2025-11-17,29.7300,-0.0057,1.3620,0.0272,0.0000,0.7012,0.7967,0.0000,-0.0038,-0.0067,0.3117,1.6661,-0.0501
2025-11-18,29.8700,0.0047,3.7317,0.0921,0.0000,0.6661,0.5955,1.0000,0.0122,0.0259,0.3850,2.8490,-0.0546
2025-11-19,29.7300,-0.0047,2.3104,0.0451,0.0000,0.4304,0.6075,0.0000,0.0331,0.0211,0.3977,1.4504,-0.0501
2025-11-20,29.1300,-0.0204,2.3627,0.0584,0.0000,0.6545,0.6550,0.0000,0.1452,-0.0188,0.3989,0.0889,-0.0306
2025-11-23,28.2400,-0.0310,0.7906,0.0421,0.0000,0.2095,0.5920,0.0000,0.1217,-0.0285,0.3943,-0.3668,0.0195
2025-11-24,28.7900,0.0193,3.5305,0.0893,0.0000,1.0334,0.6467,1.0000,-0.0057,-0.0322,0.4425,1.7182,0.0031
2025-11-25,28.8800,0.0031,2.1417,0.0918,0.0000,0.2654,0.6625,2.0000,-0.0308,0.0716,0.4457,2.4542,0.0280
2025-11-26,29.8000,0.0314,1.2287,0.0701,0.0000,0.4559,0.7870,3.0000,-0.0704,0.0367,0.4322,2.4680,-0.0037
2025-11-27,30.2100,0.0137,0.2864,0.0450,0.0000,0.1070,0.8144,4.0000,-0.1016,0.0101,0.4449,2.1351,-0.0172
2025-11-30,29.7500,-0.0153,0.4272,0.0770,0.0000,0.1434,0.8065,0.0000,-0.1003,-0.0103,0.4419,1.6982,-0.0020
2025-12-01,29.6900,-0.0020,0.7628,0.0623,0.0000,0.1941,0.8060,0.0000,-0.0354,-0.0245,0.4218,1.2480,0.0101
2025-12-02,30.0900,0.0134,0.6538,0.0445,0.0000,0.0553,0.8258,1.0000,0.0853,0.0303,0.4163,1.3504,-0.0033
2025-12-03,29.9900,-0.0033,0.6243,0.0323,0.0000,0.0617,0.8272,0.0000,0.1961,0.0276,0.4121,1.0013,0.0000
2025-12-04,30.1400,0.0050,0.5022,0.0411,0.0000,0.2168,0.7657,1.0000,0.0774,0.0267,0.4168,1.0898,-0.0050
2025-12-07,29.9900,-0.0050,0.6197,0.0357,0.0000,0.0710,0.5880,0.0000,-0.1188,-0.0043,0.4137,0.7612,0.0070
2025-12-08,30.2800,0.0096,1.9519,0.0343,0.0000,0.2295,0.5586,1.0000,-0.3070,-0.0063,0.3934,1.4906,-0.0026
2025-12-09,31.0200,0.0241,0.5891,0.0422,0.0000,0.2036,0.6109,2.0000,-0.3816,0.0205,0.3683,1.6176,-0.0264
2025-12-10,31.0700,0.0016,0.4607,0.0389,0.0000,0.1091,0.4914,3.0000,-0.3428,0.0087,0.3751,1.6086,-0.0280
2025-12-11,31.1700,0.0032,0.6459,0.0330,0.0000,0.1744,0.4700,4.0000,-0.2841,0.0270,0.3641,1.6563,-0.0311
2025-12-14,31.3900,0.0070,1.5531,0.0634,0.0000,0.5863,0.3799,5.0000,-0.2593,-0.0183,0.3540,1.9740,-0.0379
2025-12-15,31.0100,-0.0122,0.3824,0.0316,0.0000,0.1791,0.4426,0.0000,-0.2191,-0.0233,0.3639,1.6207,-0.0261
2025-12-16,30.5700,-0.0143,0.4068,0.0301,0.0000,0.1838,0.4862,0.0000,-0.0666,0.0081,0.3682,1.3195,-0.0121
2025-12-17,30.2000,-0.0122,0.4862,0.0517,0.0000,0.2917,0.5204,0.0000,-0.0170,0.0386,0.3744,1.0572,0.0099
2025-12-18,30.6000,0.0132,0.3045,0.0183,0.0000,0.1495,0.5461,1.0000,-0.1965,0.0285,0.3861,1.0831,-0.0033
2025-12-21,31.1800,0.0188,0.7630,0.0282,0.0000,0.2508,0.5809,2.0000,0.1407,0.0157,0.3841,1.3472,-0.0218
2025-12-22,30.8600,-0.0103,0.6230,0.0340,0.0000,0.3118,0.6056,0.0000,0.3514,0.0167,0.3329,1.0694,-0.0117
2025-12-23,30.9900,0.0042,0.6561,0.0316,0.0000,0.2697,0.5073,1.0000,0.3376,0.0045,0.3021,1.1661,-0.0158
2025-12-25,30.9400,-0.0016,1.7230,0.0452,0.0000,0.5732,0.5092,0.0000,0.1502,0.0200,0.3024,0.5312,-0.0142
2025-12-28,31.8700,0.0296,1.9149,0.0750,0.0000,0.4146,0.6562,1.0000,0.4511,0.0200,0.3032,1.1057,-0.0430
2025-12-29,31.6600,-0.0066,0.3560,0.0496,0.0000,0.1055,0.6642,0.0000,0.5506,-0.0147,0.3142,0.8869,-0.0366
2025-12-30,32.7200,0.0329,2.5049,0.1134,0.0000,1.3206,0.7563,1.0000,0.5403,0.0486,0.3434,1.6787,-0.0678
2025-12-31,31.7000,-0.0317,0.7596,0.0502,0.0000,0.2802,0.8732,0.0000,0.1188,0.0000,0.3439,1.2640,-0.0473
2026-01-01,31.8100,0.0035,0.4118,0.0472,0.0000,0.1389,0.8434,1.0000,0.0519,0.0410,0.3570,1.3389,-0.0506
2026-01-04,31.6100,-0.0063,0.4778,0.0601,0.0000,0.1560,0.8471,0.0000,0.1570,-0.0035,0.3630,1.0805,-0.0446
2026-01-05,31.3100,-0.0095,0.1775,0.0687,0.0000,0.0595,0.8301,0.0000,0.1819,0.0519,0.3899,1.0294,-0.0355
2026-01-06,30.9100,-0.0129,0.4717,0.0349,0.0000,0.0602,0.8399,0.0000,0.3528,-0.0003,0.3695,0.7450,-0.0230
2026-01-07,30.8000,-0.0036,0.5404,0.0393,0.0000,0.0588,0.8419,0.0000,0.5216,0.0356,0.3765,0.3764,-0.0195
2026-01-08,30.9100,0.0036,0.6085,0.0459,0.0000,0.0562,0.8435,1.0000,0.4994,0.0494,0.3792,0.6779,-0.0230
2026-01-11,30.5000,-0.0134,0.4284,0.0754,0.0000,0.1028,0.7291,0.0000,0.6177,0.0000,0.3899,0.3192,-0.0098
2026-01-12,30.5000,0.0000,0.6910,0.0449,0.0000,0.1150,0.7306,0.0000,0.6981,0.0043,0.3587,0.3022,-0.0098
2026-01-13,30.5400,0.0013,1.0390,0.0822,0.0000,0.1243,0.4778,1.0000,0.5995,0.0813,0.3589,0.8831,-0.0111
2026-01-15,30.6300,0.0029,0.2838,0.0637,0.0000,0.0576,0.2977,2.0000,0.4906,0.0200,0.3796,0.9582,-0.0140
2026-01-18,34.1800,0.1097,6.6484,0.1556,0.0000,3.2391,1.4506,3.0000,2.6733,0.0020,0.5293,3.6321,-0.1164
2026-01-19,30.5200,-0.1133,2.0203,0.1537,0.0000,1.1190,1.8950,0.0000,-0.0919,0.0032,0.5249,2.0999,-0.0105
2026-01-20,30.5200,0.0000,0.7735,0.0852,0.0000,0.3079,1.8975,0.0000,-0.0197,-0.0433,0.5249,1.7992,-0.0105
2026-01-21,30.8600,0.0111,0.2494,0.0969,0.0000,0.1026,1.8968,1.0000,-0.1092,0.0976,0.5375,1.6684,-0.0214
2026-01-22,30.5600,-0.0098,0.4922,0.0491,0.0000,0.1218,1.9011,0.0000,-0.0497,0.0000,0.5382,1.3080,-0.0118
2026-01-26,30.6700,0.0036,0.7937,0.0339,0.0000,0.0537,2.0266,1.0000,-0.0720,0.0000,0.5379,1.4679,-0.0153
2026-01-27,30.7600,0.0029,0.4290,0.0322,0.0000,0.0762,2.0320,2.0000,0.0124,-0.0052,0.5394,1.4453,-0.0182
2026-01-28,31.3400,0.0187,1.7891,0.0846,0.0000,0.0807,2.0975,3.0000,-0.0886,-0.0442,0.5340,1.8451,-0.0364
2026-01-29,30.5900,-0.0242,2.2771,0.0621,0.0000,0.1266,2.1619,0.0000,0.1051,0.0179,0.5319,0.9384,-0.0127
2026-02-01,30.2000,-0.0128,0.9717,0.0705,0.0000,0.0547,2.1669,0.0000,0.0499,-0.0373,0.5314,0.5308,0.0099
2026-02-02,30.5000,0.0099,0.5809,0.0734,0.0000,0.0483,1.5558,1.0000,0.0229,-0.0315,0.5257,0.6705,0.0000
2026-02-03,30.7000,0.0065,2.0261,0.0388,0.0000,0.0399,0.5251,2.0000,-0.0334,0.0249,0.5224,1.3126,-0.0065
2026-02-04,30.5000,-0.0065,0.8508,0.0341,0.0000,0.0304,0.5350,0.0000,-0.0464,-0.0179,0.4980,0.8821,0.0013
2026-02-05,30.5400,0.0013,0.3770,0.0491,0.0000,0.1194,0.5114,1.0000,-0.1081,-0.0003,0.4953,0.9385,0.0013
2026-02-08,31.2600,0.0233,0.3556,0.0582,0.0000,0.1902,0.5806,2.0000,-0.2087,0.0000,0.4958,0.9955,-0.0218
2026-02-09,31.0200,-0.0077,0.3375,0.0258,0.0000,0.1750,0.5950,0.0000,-0.1591,0.0080,0.4991,0.7737,-0.0142
2026-02-10,30.6300,-0.0127,0.8230,0.0261,0.0000,0.3894,0.6192,0.0000,-0.1619,-0.0152,0.4826,0.3058,-0.0016
2026-02-11,31.0100,0.0123,0.4570,0.0345,0.0000,0.2190,0.5873,1.0000,-0.2130,0.0278,0.4799,0.4789,-0.0139
2026-02-12,30.6300,-0.0123,0.4991,0.0402,0.0000,0.3538,0.5493,0.0000,-0.1537,0.0123,0.4826,0.0373,-0.0016
2026-02-15,31.1200,0.0159,1.0949,0.0594,0.0000,0.7394,0.5489,1.0000,-0.2042,0.0284,0.4568,1.1223,-0.0174
2026-02-16,31.0400,-0.0026,0.7082,0.0383,0.0000,0.3790,0.5430,0.0000,-3.1616,0.0125,0.3500,0.4739,-0.0148
2026-02-17,31.0300,-0.0003,0.5656,0.0351,0.0000,0.2553,0.5411,0.0000,-0.0401,-0.0251,0.3397,-0.1026,-0.0145
2026-02-18,30.5800,-0.0146,0.7547,0.0307,0.0000,0.1571,0.5756,0.0000,0.0512,-0.0235,0.3414,-0.8484,0.0160
2026-02-19,31.0700,0.0159,5.6660,0.0216,0.0000,0.1111,0.6151,1.0000,0.0565,0.0039,0.4560,3.5433,-0.0341
2026-02-22,31.7800,0.0226,4.0971,0.0560,0.0000,0.4593,0.6188,2.0000,-0.0708,0.0039,0.5031,3.6477,-0.0557
2026-02-23,34.5000,0.0821,3.6481,0.0986,0.0000,1.4136,1.1874,3.0000,2.0305,0.0211,0.5290,3.3595,-0.1301
2026-02-24,37.1600,0.0743,6.2898,0.1313,0.0000,4.3840,1.3288,4.0000,1.6434,0.0638,0.6046,3.5191,-0.1924
2026-02-25,38.4800,0.0349,1.5533,0.0988,0.0000,0.7386,1.3374,5.0000,1.4971,0.0091,0.6004,2.8261,-0.2269
2026-02-26,35.5400,-0.0795,2.0448,0.1773,0.0000,1.1610,1.7427,0.0000,0.0643,0.0005,0.5941,1.9576,-0.1629
2026-03-01,32.9500,-0.0757,0.9499,0.0986,0.0000,0.4556,1.9624,0.0000,-0.2789,-0.0011,0.5838,1.5345,-0.0971
2026-03-03,33.8700,0.0275,0.4156,0.0960,0.0000,0.1555,1.9644,1.0000,-0.3355,-0.0258,0.5765,1.4377,-0.1216
2026-03-04,34.3200,0.0132,0.3784,0.0874,0.0000,0.1754,1.9595,2.0000,-0.3628,0.0272,0.5839,1.3482,-0.1332
2026-03-05,35.8800,0.0445,1.5754,0.0975,0.0000,1.1209,1.9419,3.0000,-0.4984,0.0297,0.5663,1.4755,-0.1708
2026-03-08,34.5600,-0.0375,0.2642,0.0613,0.0000,0.1006,2.0121,0.0000,-0.3756,-0.0003,0.5600,1.2752,-0.1392
2026-03-09,38.8500,0.1170,2.5322,0.1658,0.0000,1.1570,2.1497,1.0000,0.1742,0.0648,0.5408,1.5987,-0.2342
2026-03-10,39.4100,0.0143,2.3078,0.1330,0.0000,1.0058,2.0301,2.0000,0.1025,0.0000,0.5155,1.8320,-0.2451
2026-03-11,36.1800,-0.0855,2.4175,0.1299,0.0000,1.4038,2.0371,0.0000,-0.0690,0.0099,0.4997,1.1318,-0.1777
2026-03-12,36.7600,0.0159,0.6086,0.0925,0.0000,0.2422,2.0124,1.0000,-0.0803,0.0000,0.4810,1.1609,-0.1907
2026-03-15,35.2300,-0.0425,0.9321,0.0661,0.0000,0.2076,1.8733,0.0000,-0.0292,-0.0283,0.4529,0.8355,-0.1555
2026-03-16,34.3300,-0.0259,0.3832,0.0580,0.0000,0.1181,1.7266,0.0000,0.0879,0.0009,0.4490,0.6557,-0.1334
2026-03-17,34.2600,-0.0020,0.2638,0.0292,0.0000,0.0906,1.7083,0.0000,0.0863,0.0149,0.4424,0.5059,-0.1316
2026-03-18,33.5700,-0.0203,0.3644,0.0378,0.0000,0.1561,1.7119,0.0000,0.1410,-0.0105,0.4280,0.3090,-0.1138
2026-03-19,32.9800,-0.0177,0.2662,0.0331,0.0000,0.0674,1.6462,0.0000,0.1488,-0.0077,0.4198,0.1017,-0.0979
2026-03-22,30.0100,-0.0944,1.5035,0.1599,0.0000,0.4301,1.7539,0.0000,0.1526,-0.0024,0.4206,-0.7830,-0.0087
2026-03-23,31.1900,0.0386,0.5177,0.0558,0.0000,0.2782,1.2608,1.0000,0.1184,-0.0070,0.4337,-0.7589,-0.0462
2026-03-24,31.0200,-0.0055,0.3168,0.0371,0.0000,0.1813,1.2187,0.0000,0.2065,-0.0125,0.4527,-1.1742,-0.0409
2026-03-26,30.4600,-0.0182,0.4295,0.0453,0.0000,0.0725,1.0383,0.0000,0.3333,0.0000,0.4193,-1.3088,-0.0233
2026-03-29,29.7500,-0.0236,0.5656,0.1156,0.0000,0.1665,0.9801,0.0000,0.5046,0.0144,0.4264,-1.4298,0.0138
2026-03-31,30.2300,0.0160,0.6053,0.0592,0.0000,0.2676,1.0070,1.0000,0.4086,0.0168,0.4295,-1.0799,-0.0023
2026-04-01,30.1600,-0.0023,0.3537,0.0235,0.0000,0.1832,1.0072,0.0000,0.4033,0.0003,0.4408,-1.1898,0.0030
2026-04-05,30.3300,0.0056,0.2990,0.0231,0.0000,0.0979,1.0175,1.0000,0.4787,-0.0053,0.4444,-1.0155,-0.0026
2026-04-06,30.2500,-0.0026,0.1803,0.0165,0.0000,0.0574,1.0192,0.0000,0.5395,0.0000,0.4538,-1.0328,0.0050
2026-04-07,30.4000,0.0049,0.6665,0.0391,0.0000,0.1636,1.0303,1.0000,0.6569,0.0314,0.4547,-0.7075,0.0105
2026-04-08,30.7200,0.0105,0.1081,0.0283,0.0000,0.0326,0.5197,2.0000,0.5121,-0.0112,0.4645,-0.6175,0.0264
2026-04-09,33.4900,0.0863,1.4486,0.0979,0.0000,0.4323,0.8669,3.0000,-0.2191,0.0225,0.4481,-0.0264,-0.0854
2026-04-12,34.0400,0.0163,0.5644,0.0661,0.0000,0.2549,0.8632,4.0000,-0.2235,-0.0143,0.4213,0.3497,-0.1063
2026-04-14,35.0400,0.0290,0.6516,0.0511,0.0000,0.2678,0.8290,5.0000,-0.1525,0.0297,0.3477,0.6693,-0.1318
2026-04-15,35.0600,0.0006,0.3637,0.0468,0.0000,0.1672,0.7562,6.0000,-0.0900,0.0257,0.3638,1.0039,-0.1694
2026-04-16,36.0500,0.0278,0.9110,0.0569,0.0000,0.2984,0.7609,7.0000,-0.3053,-0.0188,0.3417,1.4361,-0.1922
2026-04-19,33.3900,-0.0767,0.7330,0.0836,0.0000,0.2582,1.1083,0.0000,-0.4766,-0.0458,0.3445,1.2170,-0.1279
2026-04-20,33.0100,-0.0114,0.1879,0.0357,0.0000,0.0798,1.1236,0.0000,-0.4342,-0.0117,0.3702,1.1804,-0.1178
2026-04-21,33.4700,0.0138,0.4497,0.0445,0.0000,0.1953,1.1182,1.0000,-0.5767,0.0000,0.3855,1.3191,-0.1300
2026-04-22,32.7900,-0.0205,0.3365,0.0360,0.0000,0.1039,1.1480,0.0000,-0.5644,0.0063,0.4022,1.1481,-0.1162
2026-04-23,32.6000,-0.0058,0.1705,0.0439,0.0000,0.0699,1.1535,0.0000,0.0930,-0.0207,0.3459,0.9933,-0.1163
2026-04-26,31.8900,-0.0220,0.4934,0.0552,0.0000,0.1955,0.8645,0.0000,0.3097,0.0000,0.3522,0.7872,-0.0966
2026-04-27,31.5300,-0.0114,0.2505,0.0206,0.0000,0.0612,0.8399,0.0000,0.3355,0.0063,0.3790,0.6526,-0.0863
2026-04-28,32.1200,0.0185,0.4486,0.0679,0.0000,0.2320,0.8044,1.0000,0.1638,-0.0003,0.3944,0.6841,-0.1031
2026-04-29,32.3200,0.0062,0.3993,0.0504,0.0000,0.1849,0.8114,2.0000,0.0478,-0.0252,0.4061,0.7031,-0.1086
2026-05-03,32.0500,-0.0084,0.3982,0.0499,0.0000,0.0690,0.7333,0.0000,0.1757,0.0006,0.4128,0.5355,-0.1011
2026-05-04,32.4000,0.0109,1.9638,0.0772,0.0000,0.4220,0.3987,1.0000,0.1034,0.0006,0.4218,0.9751,-0.1108
2026-05-05,32.1100,-0.0090,0.4655,0.0330,0.0000,0.1469,0.3950,0.0000,0.1787,0.0000,0.4307,0.7868,-0.1028
2026-05-06,32.2300,0.0037,0.3530,0.0242,0.0000,0.0666,0.3681,1.0000,0.1443,-0.0034,0.4392,0.8897,-0.1061
